time,position,velocity,torque
0.000000000000000000e+00,0.000000000000000000e+00,0.000000000000000000e+00,4.308902689094958327e-01
5.000000000000000104e-03,4.765497543318225095e-03,1.957662470007549560e-01,5.501092921316500517e-01
1.000000000000000021e-02,2.013325714736653380e-02,4.248525162685624634e-01,5.972429805263099745e-01
1.499999999999999944e-02,4.763979405542741880e-02,6.772876923749352462e-01,5.260639008905435565e-01
2.000000000000000042e-02,8.782599991452445798e-02,9.276276023627325618e-01,2.940133771681279762e-01
2.500000000000000139e-02,1.399202305678907965e-01,1.149155165074776219e+00,3.412521685628013834e-01
2.999999999999999889e-02,2.018270943227868652e-01,1.315999347637584860e+00,4.632579186028225604e-01
3.500000000000000333e-02,2.702237340041009905e-01,1.405279739259887029e+00,5.428081142177335616e-01
4.000000000000000083e-02,3.407584939694676129e-01,1.399004754403435857e+00,6.158280978481140977e-01
4.499999999999999833e-02,4.083325199469808320e-01,1.285457470156153414e+00,6.580479958572709176e-01
5.000000000000000278e-02,4.674341633310381550e-01,1.059901906591664167e+00,6.856450357747793101e-01
5.500000000000000028e-02,5.124913578188372565e-01,7.246183294801155084e-01,7.464658817297588067e-01
5.999999999999999778e-02,5.382139337625102549e-01,2.885254094221607057e-01,7.763721947232056220e-01
6.500000000000000222e-02,5.399147297510084043e-01,-2.332270125781453485e-01,8.238477868487218414e-01
7.000000000000000666e-02,5.138161845110520431e-01,-8.194011546853189332e-01,9.333916462209512765e-01
7.499999999999999722e-02,4.573578468902063654e-01,-1.442510723242239168e+00,1.004305793551365733e+00
8.000000000000000167e-02,3.695134192314988297e-01,-2.068690726595756590e+00,1.027764022003657463e+00
8.500000000000000611e-02,2.510991739808220435e-01,-2.658314101524116069e+00,1.042343591500259459e+00
8.999999999999999667e-02,1.050147911632441644e-01,-3.168207981342120227e+00,1.039214745949196050e+00
9.500000000000000111e-02,-6.367836313159329353e-02,-3.555957469029039419e+00,1.078467350637016153e+00
1.000000000000000056e-01,-2.479388365595837085e-01,-3.785813773904477486e+00,1.140056174876144413e+00
1.049999999999999961e-01,-4.392285831571151045e-01,-3.834493834347466823e+00,1.131462594214725170e+00
1.100000000000000006e-01,-6.282349779708836790e-01,-3.694557056970428910e+00,1.159643828159970136e+00
1.150000000000000050e-01,-8.056647106101526568e-01,-3.373765270130887117e+00,1.180078889584465607e+00
1.199999999999999956e-01,-9.629060113255787368e-01,-2.890663338797150761e+00,1.194383371932620230e+00
1.250000000000000000e-01,-1.092414198478385945e+00,-2.268335638109623797e+00,1.188989361439307668e+00
1.300000000000000044e-01,-1.187791673605231857e+00,-1.528813336855515903e+00,1.183215481077759756e+00
1.350000000000000089e-01,-1.243644105601537042e+00,-6.899173705578557358e-01,1.197867568363198520e+00
1.400000000000000133e-01,-1.255355504375564424e+00,2.347940463617265439e-01,1.219600571651988874e+00
1.449999999999999900e-01,-1.218936919014707021e+00,1.233084723271424599e+00,1.214170908578251051e+00
1.499999999999999944e-01,-1.131087956001412431e+00,2.288562373650408599e+00,1.181372620375216620e+00
1.549999999999999989e-01,-9.895802537613067607e-01,3.373469269741588672e+00,1.176945916091105548e+00
1.600000000000000033e-01,-7.940104535142378239e-01,4.441544848575241566e+00,1.145235333085277363e+00
1.650000000000000078e-01,-5.468373975039557688e-01,5.424554392215570786e+00,1.117127134960733903e+00
1.700000000000000122e-01,-2.550769241520915998e-01,6.196929851706279635e+00,1.106095954950007565e+00
1.750000000000000167e-01,6.751748792253245424e-02,6.650602038352875667e+00,1.096038625582836712e+00
1.799999999999999933e-01,4.043478823954179679e-01,6.768293218009962864e+00,1.063128114270367020e+00
1.849999999999999978e-01,7.393275590094072758e-01,6.586638497732510089e+00,1.016009223988486143e+00
1.900000000000000022e-01,1.059314606702418393e+00,6.183947582748721139e+00,1.010959317069443753e+00
1.950000000000000067e-01,1.355662750801714278e+00,5.657417967271038961e+00,1.021490428450598564e+00
2.000000000000000111e-01,1.624127167216796286e+00,5.074354862993168958e+00,1.017056248291831277e+00
2.050000000000000155e-01,1.862695736692191462e+00,4.466129420612031886e+00,1.003346496454629255e+00
2.099999999999999922e-01,2.070907123089746449e+00,3.866920710745818557e+00,9.721042489075049087e-01
2.149999999999999967e-01,2.250081744619890411e+00,3.308591482761932490e+00,9.751930054868037656e-01
2.200000000000000011e-01,2.402730251547905649e+00,2.807614294987247128e+00,1.002358494754225449e+00
2.250000000000000056e-01,2.531898165794661093e+00,2.369668717753345089e+00,9.929003879152353829e-01
2.300000000000000100e-01,2.640732943411854716e+00,1.993755497569981161e+00,9.822823225545178616e-01
2.350000000000000144e-01,2.732230481754209794e+00,1.675224262134732411e+00,9.732249592670211280e-01
2.399999999999999911e-01,2.809105771829223386e+00,1.407744365864297409e+00,9.983412553774740905e-01
2.449999999999999956e-01,2.873740670213376980e+00,1.184461165969826757e+00,9.957605200442921634e-01
2.500000000000000000e-01,2.928174717838001317e+00,9.986076209596234099e-01,9.552636276463616349e-01
2.550000000000000044e-01,2.974117150484215433e+00,8.437564146925777830e-01,9.368067763629169820e-01
2.600000000000000089e-01,3.012965342796997348e+00,7.138580087262732521e-01,9.629729720498777512e-01
2.650000000000000133e-01,3.045822034087045882e+00,6.031505373855510221e-01,9.649118973284714906e-01
2.700000000000000178e-01,3.073505160085292065e+00,5.059658181872684901e-01,9.030686313075031446e-01
2.750000000000000222e-01,3.096546350881535847e+00,4.164723106233212402e-01,8.763441672195753096e-01
2.800000000000000266e-01,3.115175048174922079e+00,3.283546900845421002e-01,9.178575114729873308e-01
2.850000000000000311e-01,3.129284519870882519e+00,2.344037324834907232e-01,9.502777101514801039e-01
2.899999999999999800e-01,3.138374865734535835e+00,1.260104317003127861e-01,8.929762302749087999e-01
2.949999999999999845e-01,3.141592653589793560e+00,1.409462824231155764e-18,8.648744085498910605e-01
2.999999999999999889e-01,3.141592653589793560e+00,1.409462824231155764e-18,9.099329635906376890e-01
3.049999999999999933e-01,3.141592653589793560e+00,1.409462824231155764e-18,9.186334238337778846e-01
3.099999999999999978e-01,3.141592653589793560e+00,1.409462824231155764e-18,8.801750546963351685e-01
3.150000000000000022e-01,3.141592653589793560e+00,1.409462824231155764e-18,8.976745996631942948e-01
3.200000000000000067e-01,3.141592653589793560e+00,1.409462824231155764e-18,8.876904558582353610e-01
3.250000000000000111e-01,3.141592653589793560e+00,1.409462824231155764e-18,8.662581190836948775e-01
3.300000000000000155e-01,3.141592653589793560e+00,1.409462824231155764e-18,8.363290480252449921e-01
3.350000000000000200e-01,3.141592653589793560e+00,1.409462824231155764e-18,8.549755209908356246e-01
3.400000000000000244e-01,3.141592653589793560e+00,1.409462824231155764e-18,8.520333407749215437e-01
3.450000000000000289e-01,3.141592653589793560e+00,1.409462824231155764e-18,8.433416220727542045e-01
3.500000000000000333e-01,3.141592653589793560e+00,1.409462824231155764e-18,8.410699052187388114e-01
3.549999999999999822e-01,3.141592653589793560e+00,1.409462824231155764e-18,8.292750393287059429e-01
3.599999999999999867e-01,3.141592653589793560e+00,1.409462824231155764e-18,8.055432568763284396e-01
3.649999999999999911e-01,3.141592653589793560e+00,1.409462824231155764e-18,7.772064842977000065e-01
3.699999999999999956e-01,3.141592653589793560e+00,1.409462824231155764e-18,8.032130441988961644e-01
3.750000000000000000e-01,3.141592653589793560e+00,1.409462824231155764e-18,8.053269423158480045e-01
3.800000000000000044e-01,3.141592653589793560e+00,1.409462824231155764e-18,7.893730106350621556e-01
3.850000000000000089e-01,3.141592653589793560e+00,1.409462824231155764e-18,7.748875028057553571e-01
3.900000000000000133e-01,3.141592653589793560e+00,1.409462824231155764e-18,7.651272733716245611e-01
3.950000000000000178e-01,3.141592653589793560e+00,1.409462824231155764e-18,7.446463103459787236e-01
4.000000000000000222e-01,3.141592653589793560e+00,1.409462824231155764e-18,7.170094264202593326e-01
4.050000000000000266e-01,3.141592653589793560e+00,1.409462824231155764e-18,7.150040111289092115e-01
4.100000000000000311e-01,3.141592653589793560e+00,1.409462824231155764e-18,7.050661337741038759e-01
4.150000000000000355e-01,3.141592653589793560e+00,1.409462824231155764e-18,7.022132051684061294e-01
4.199999999999999845e-01,3.141592653589793560e+00,1.409462824231155764e-18,6.883164616686099357e-01
4.249999999999999889e-01,3.141592653589793560e+00,1.409462824231155764e-18,6.967633500516913214e-01
4.299999999999999933e-01,3.141592653589793560e+00,1.409462824231155764e-18,6.745334234892582659e-01
4.349999999999999978e-01,3.141592653589793560e+00,1.409462824231155764e-18,6.471957542430235577e-01
4.400000000000000022e-01,3.141592653589793560e+00,1.409462824231155764e-18,6.585773741779494816e-01
4.450000000000000067e-01,3.141592653589793560e+00,1.409462824231155764e-18,6.619820199373384062e-01
4.500000000000000111e-01,3.141592653589793560e+00,1.409462824231155764e-18,6.293311761377542446e-01
4.550000000000000155e-01,3.141592653589793560e+00,1.409462824231155764e-18,6.400652644632033317e-01
4.600000000000000200e-01,3.141592653589793560e+00,1.409462824231155764e-18,6.666469254202244121e-01
4.650000000000000244e-01,3.141592653589793560e+00,1.409462824231155764e-18,6.351056902046785524e-01
4.700000000000000289e-01,3.141592653589793560e+00,1.409462824231155764e-18,5.770044856410744272e-01
4.750000000000000333e-01,3.141592653589793560e+00,1.409462824231155764e-18,5.465040431513061847e-01
4.799999999999999822e-01,3.141592653589793560e+00,1.409462824231155764e-18,5.951835370096494326e-01
4.849999999999999867e-01,3.141592653589793560e+00,1.409462824231155764e-18,5.946399224228751113e-01
4.899999999999999911e-01,3.141592653589793560e+00,1.409462824231155764e-18,5.674870561026186255e-01
4.949999999999999956e-01,3.141592653589793560e+00,1.409462824231155764e-18,5.513880868342394548e-01
5.000000000000000000e-01,3.141592653589793560e+00,1.409462824231155764e-18,5.762280221231372845e-01
5.050000000000000044e-01,3.141592653589793560e+00,1.409462824231155764e-18,5.479506295547974526e-01
5.100000000000000089e-01,3.141592653589793560e+00,1.409462824231155764e-18,5.305542608031559304e-01
5.150000000000000133e-01,3.141592653589793560e+00,1.409462824231155764e-18,5.210236444706404235e-01
5.200000000000000178e-01,3.141592653589793560e+00,1.409462824231155764e-18,5.268355339069018539e-01
5.250000000000000222e-01,3.141592653589793560e+00,1.409462824231155764e-18,5.434699988564839490e-01
5.300000000000000266e-01,3.141592653589793560e+00,1.409462824231155764e-18,4.802274730582680728e-01
5.350000000000000311e-01,3.141592653589793560e+00,1.409462824231155764e-18,4.352826398597775537e-01
5.400000000000000355e-01,3.141592653589793560e+00,1.409462824231155764e-18,4.359561201632862759e-01
5.450000000000000400e-01,3.141592653589793560e+00,1.409462824231155764e-18,4.610381605317785403e-01
5.500000000000000444e-01,3.141592653589793560e+00,1.409462824231155764e-18,4.394809419977393494e-01
5.550000000000000488e-01,3.141592653589793560e+00,1.409462824231155764e-18,4.194526757937154793e-01
5.600000000000000533e-01,3.141592653589793560e+00,1.409462824231155764e-18,3.828140095518507424e-01
5.650000000000000577e-01,3.141592653589793560e+00,1.409462824231155764e-18,3.718751897575292009e-01
5.700000000000000622e-01,3.141592653589793560e+00,1.409462824231155764e-18,3.760681782415108421e-01
5.750000000000000666e-01,3.141592653589793560e+00,1.409462824231155764e-18,3.469938185162984579e-01
5.799999999999999600e-01,3.141592653589793560e+00,1.409462824231155764e-18,3.496822925784849323e-01
5.849999999999999645e-01,3.141592653589793560e+00,1.409462824231155764e-18,3.463373614308084547e-01
5.899999999999999689e-01,3.141592653589793560e+00,1.409462824231155764e-18,3.007094145920585215e-01
5.949999999999999734e-01,3.141592653589793560e+00,1.409462824231155764e-18,2.475221560195156878e-01
5.999999999999999778e-01,3.141592653589793560e+00,1.409462824231155764e-18,2.357118288521073135e-01
6.049999999999999822e-01,3.141592653589793560e+00,1.409462824231155764e-18,1.971157510803769053e-01
6.099999999999999867e-01,3.141592653589793560e+00,1.409462824231155764e-18,1.689707317387722507e-01
6.149999999999999911e-01,3.141592653589793560e+00,1.409462824231155764e-18,1.271023849188407662e-01
6.199999999999999956e-01,3.141592653589793560e+00,1.409462824231155764e-18,7.151693019420987674e-02
6.250000000000000000e-01,3.141592653589793560e+00,1.409462824231155764e-18,5.499668391299611381e-02
6.300000000000000044e-01,3.141592653589793560e+00,1.409462824231155764e-18,2.625783254910029826e-02
6.350000000000000089e-01,3.141592653589793560e+00,1.409462824231155764e-18,-1.766996855274573577e-02
6.400000000000000133e-01,3.141592653589793560e+00,1.409462824231155764e-18,-6.473586505461710605e-02
6.450000000000000178e-01,3.141592653589793560e+00,1.409462824231155764e-18,-8.631439893589996915e-02
6.500000000000000222e-01,3.141592653589793560e+00,1.409462824231155764e-18,-1.459499426739432337e-01
6.550000000000000266e-01,3.141592653589793560e+00,1.409462824231155764e-18,-2.120786372756613414e-01
6.600000000000000311e-01,3.141592653589793560e+00,1.409462824231155764e-18,-2.361760203173145500e-01
6.650000000000000355e-01,3.141592653589793560e+00,1.409462824231155764e-18,-2.693124390292339632e-01
6.700000000000000400e-01,3.141592653589793560e+00,1.409462824231155764e-18,-3.264989627862664445e-01
6.750000000000000444e-01,3.141592653589793560e+00,1.409462824231155764e-18,-4.092015680121725563e-01
6.800000000000000488e-01,3.141592653589793560e+00,1.409462824231155764e-18,-4.573888879222430259e-01
6.850000000000000533e-01,3.141592653589793560e+00,1.409462824231155764e-18,-4.740794856700684679e-01
6.900000000000000577e-01,3.141592653589793560e+00,1.409462824231155764e-18,-4.608516662210800363e-01
6.950000000000000622e-01,3.141592653589793560e+00,1.409462824231155764e-18,-4.416372344737006794e-01
7.000000000000000666e-01,3.141592653589793560e+00,1.409462824231155764e-18,-4.311267512060430462e-01
7.049999999999999600e-01,3.141592653589793560e+00,1.409462824231155764e-18,-4.381866888795283854e-01
7.099999999999999645e-01,3.141592653589793560e+00,1.409462824231155764e-18,-5.019427709722150688e-01
7.149999999999999689e-01,3.141592653589793560e+00,1.409462824231155764e-18,-5.356277629852029820e-01
7.199999999999999734e-01,3.141592653589793560e+00,1.409462824231155764e-18,-5.526880639904357961e-01
7.249999999999999778e-01,3.141592653589793560e+00,1.409462824231155764e-18,-5.516100204978916510e-01
7.299999999999999822e-01,3.141592653589793560e+00,1.409462824231155764e-18,-5.920865086562052682e-01
7.349999999999999867e-01,3.141592653589793560e+00,1.409462824231155764e-18,-6.277645996498065761e-01
7.399999999999999911e-01,3.141592653589793560e+00,1.409462824231155764e-18,-6.825616081865422125e-01
7.449999999999999956e-01,3.141592653589793560e+00,1.409462824231155764e-18,-7.547841467008600258e-01
7.500000000000000000e-01,3.141592653589793560e+00,1.409462824231155764e-18,-8.226631344077123265e-01
7.550000000000000044e-01,3.141592653589793560e+00,1.409462824231155764e-18,-8.562674507994970652e-01
7.600000000000000089e-01,3.141592653589793560e+00,1.409462824231155764e-18,-8.388026652737493594e-01
7.650000000000000133e-01,3.141592653589793560e+00,1.409462824231155764e-18,-8.385314484198787000e-01
7.700000000000000178e-01,3.141592653589793560e+00,1.409462824231155764e-18,-8.583890521777648441e-01
7.750000000000000222e-01,3.141592653589793560e+00,1.409462824231155764e-18,-8.835768408190829426e-01
7.800000000000000266e-01,3.141592653589793560e+00,1.409462824231155764e-18,-8.872144083810619142e-01
7.850000000000000311e-01,3.141592653589793560e+00,1.409462824231155764e-18,-9.211443713148379508e-01
7.900000000000000355e-01,3.141592653589793560e+00,1.409462824231155764e-18,-9.247729318321353809e-01
7.950000000000000400e-01,3.141592653589793560e+00,1.409462824231155764e-18,-9.378234701793400907e-01
8.000000000000000444e-01,3.141592653589793560e+00,1.409462824231155764e-18,-9.422949959904992623e-01
8.050000000000000488e-01,3.141592653589793560e+00,1.409462824231155764e-18,-9.453634450203926010e-01
8.100000000000000533e-01,3.141592653589793560e+00,1.409462824231155764e-18,-9.752409458703495959e-01
8.150000000000000577e-01,3.141592653589793560e+00,1.409462824231155764e-18,-1.000935015457596000e+00
8.200000000000000622e-01,3.141592653589793560e+00,1.409462824231155764e-18,-9.972989756078718404e-01
8.250000000000000666e-01,3.141592653589793560e+00,1.409462824231155764e-18,-9.980781207030136049e-01
8.300000000000000711e-01,3.141592653589793560e+00,1.409462824231155764e-18,-1.000303287755633708e+00
8.349999999999999645e-01,3.141592653589793560e+00,1.409462824231155764e-18,-9.877003318141998056e-01
8.399999999999999689e-01,3.141592653589793560e+00,1.409462824231155764e-18,-9.972780606477673615e-01
8.449999999999999734e-01,3.141592653589793560e+00,1.409462824231155764e-18,-1.008112959420156773e+00
8.499999999999999778e-01,3.141592653589793560e+00,1.409462824231155764e-18,-1.019226412521961000e+00
8.549999999999999822e-01,3.141592653589793560e+00,1.409462824231155764e-18,-1.008010227144395810e+00
8.599999999999999867e-01,3.141592653589793560e+00,1.409462824231155764e-18,-9.847324324520020378e-01
8.649999999999999911e-01,3.141592653589793560e+00,1.409462824231155764e-18,-1.029180440364223070e+00
8.699999999999999956e-01,3.141592653589793560e+00,1.409462824231155764e-18,-1.024778161968933565e+00
8.750000000000000000e-01,3.141592653589793560e+00,1.409462824231155764e-18,-1.028246748578078851e+00
8.800000000000000044e-01,3.141592653589793560e+00,1.409462824231155764e-18,-1.036736822333138353e+00
8.850000000000000089e-01,3.141592653589793560e+00,1.409462824231155764e-18,-1.061858480635048618e+00
8.900000000000000133e-01,3.141592653589793560e+00,1.409462824231155764e-18,-1.063797514742119255e+00
8.950000000000000178e-01,3.141592653589793560e+00,1.409462824231155764e-18,-1.069085388556350269e+00
9.000000000000000222e-01,3.141592653589793560e+00,1.409462824231155764e-18,-1.062586917860949276e+00
9.050000000000000266e-01,3.141592653589793560e+00,1.409462824231155764e-18,-1.086834053836600589e+00
9.100000000000000311e-01,3.141592653589793560e+00,1.409462824231155764e-18,-1.109165519694324198e+00
9.150000000000000355e-01,3.141592653589793560e+00,1.409462824231155764e-18,-1.097268448262728846e+00
9.200000000000000400e-01,3.141592653589793560e+00,1.409462824231155764e-18,-1.086623005110798790e+00
9.250000000000000444e-01,3.141592653589793560e+00,1.409462824231155764e-18,-1.079630262794462059e+00
9.300000000000000488e-01,3.141592653589793560e+00,1.409462824231155764e-18,-1.100488385697709237e+00
9.350000000000000533e-01,3.141592653589793560e+00,1.409462824231155764e-18,-1.106029988125145858e+00
9.400000000000000577e-01,3.141592653589793560e+00,1.409462824231155764e-18,-1.110082194528019484e+00
9.450000000000000622e-01,3.141592653589793560e+00,1.409462824231155764e-18,-1.084344926113728791e+00
9.500000000000000666e-01,3.141592653589793560e+00,1.409462824231155764e-18,-1.153763878271605314e+00
9.550000000000000711e-01,3.141592653589793560e+00,1.409462824231155764e-18,-1.149948909116332407e+00
9.599999999999999645e-01,3.141592653589793560e+00,1.409462824231155764e-18,-1.114869825858242347e+00
9.649999999999999689e-01,3.141592653589793560e+00,1.409462824231155764e-18,-1.123075250861611751e+00
9.699999999999999734e-01,3.141592653589793560e+00,1.409462824231155764e-18,-1.146582466976008741e+00
9.749999999999999778e-01,3.141592653589793560e+00,1.409462824231155764e-18,-1.159575755551136345e+00
9.799999999999999822e-01,3.141592653589793560e+00,1.409462824231155764e-18,-1.149963921499069341e+00
9.849999999999999867e-01,3.141592653589793560e+00,1.409462824231155764e-18,-1.150651528088881825e+00
