time,position,velocity,torque
0.000000000000000000e+00,-1.907377737087045944e-04,-1.263736263736277010e-01,2.930402930402919992e-03
1.000046730041503906e-02,-1.335164415960932160e-03,-6.043956043956200119e-02,-5.304029304029302949e-01
2.000093460083007812e-02,-1.716639963378341349e-03,-9.340659340659485110e-02,-6.710622710622704545e-01
3.000211715698242188e-02,-2.479591058213159727e-03,-9.340659340659485110e-02,-6.124542124542120547e-01
4.000258445739746094e-02,-5.149919890135024048e-03,-1.593406593406605509e-01,-7.472527472527463743e-01
5.000305175781250000e-02,-6.675822079804660802e-03,-2.472527472527481507e-01,-7.648351648351656706e-01
6.000328063964843750e-02,-9.727626459143934312e-03,-6.043956043956200119e-02,-8.879120879120883103e-01
7.000374794006347656e-02,-1.430533302815284458e-02,-4.120879120879124002e-01,-8.175824175824182305e-01
8.000421524047851562e-02,-1.812008850232693646e-02,-2.802197802197810006e-01,-9.582417582417583901e-01
9.000515937805175781e-02,-2.384222171358807429e-02,-5.659340659340656998e-01,-9.699633699633700701e-01
1.000056266784667969e-01,-2.956435492484921213e-02,-6.648351648351642496e-01,-9.641025641025642301e-01
1.100058555603027344e-01,-3.643091477836257752e-02,-7.307692307692299494e-01,-9.875457875457875900e-01
1.200065612792968750e-01,-4.367895017929335211e-02,-7.307692307692299494e-01,-9.523809523809525501e-01
1.300075054168701172e-01,-5.207141222247635426e-02,-7.307692307692299494e-01,-9.992673992673992700e-01
1.400079727172851562e-01,-6.084534981307676560e-02,-8.846153846153832490e-01,-8.820512820512824703e-01
1.500084400177001953e-01,-7.076371404592940451e-02,-1.049450549450551051e+00,-7.941391941391948706e-01
1.600086688995361328e-01,-7.991912718394722503e-02,-9.175824175824160989e-01,-7.355311355311346944e-01
1.700096130371093750e-01,-9.136339360646950070e-02,-1.181318681318682451e+00,-5.831501831501828548e-01
1.800100803375244141e-01,-1.012817578393221396e-01,-9.175824175824160989e-01,-5.538461538461536549e-01
1.900105476379394531e-01,-1.119630731670095969e-01,-1.115384615384616751e+00,-3.780219780219784553e-01
2.000112533569335938e-01,-1.222629129472796450e-01,-1.016483516483518201e+00,-2.490842490842481993e-01
2.100119590759277344e-01,-1.321812771801322839e-01,-1.049450549450551051e+00,-1.142857142857138797e-01
2.200124263763427734e-01,-1.405737392233152860e-01,-5.989010989010985497e-01,-2.930402930402919992e-03
2.300131320953369141e-01,-1.470588235294112422e-01,-5.989010989010985497e-01,1.142857142857138797e-01
2.400135993957519531e-01,-1.565957122148464720e-01,-1.181318681318682451e+00,2.549450549450558157e-01
2.500143051147460938e-01,-1.642252231631946557e-01,-5.659340659340656998e-01,2.373626373626365194e-01
2.600147724151611328e-01,-1.718547341115428395e-01,-7.967032967032956492e-01,3.369963369963375754e-01
2.700152397155761719e-01,-1.775768673228039773e-01,-6.318681318681313996e-01,4.600732600732602151e-01
2.800157070159912109e-01,-1.840619516288999336e-01,-3.791208791208795503e-01,4.659340659340660551e-01
2.900159358978271484e-01,-1.871137560082392071e-01,-3.461538461538467004e-01,5.714285714285711748e-01
3.000164031982421875e-01,-1.916914625772481173e-01,-2.142857142857153008e-01,5.538461538461536549e-01
3.100166320800781250e-01,-1.928358892195003449e-01,-2.802197802197810006e-01,6.476190476190470946e-01
3.200173377990722656e-01,-1.935988403143351633e-01,1.043956043956058011e-01,6.417582417582412546e-01
3.300180435180664062e-01,-1.935988403143351633e-01,1.043956043956058011e-01,6.417582417582412546e-01
3.400182723999023438e-01,-1.924544136720829357e-01,7.142857142857295116e-02,6.593406593406587746e-01
3.500187397003173828e-01,-1.890211337453262530e-01,4.890109890109890500e-01,6.769230769230762945e-01
3.600189685821533203e-01,-1.859693293659869795e-01,3.901098901098905003e-01,6.886446886446879745e-01
3.700201511383056641e-01,-1.810101472495606600e-01,4.890109890109890500e-01,6.710622710622704545e-01
3.800215721130371094e-01,-1.752880140382995222e-01,6.428571428571423496e-01,6.153846153846131983e-02
3.900218009948730469e-01,-1.695658808270383844e-01,8.956043956043941989e-01,3.721611721611726153e-01
4.000222682952880859e-01,-1.615548943312727914e-01,5.769230769230766498e-01,6.769230769230762945e-01
4.100227355957031250e-01,-1.539253833829246076e-01,9.285714285714270488e-01,5.831501831501828548e-01
4.200232028961181641e-01,-1.447699702449067871e-01,1.027472527472529151e+00,5.362637362637361349e-01
4.300239086151123047e-01,-1.352330815594715574e-01,8.956043956043941989e-01,6.241758241758237347e-01
4.400246143341064453e-01,-1.249332417792015093e-01,1.126373626373627701e+00,5.304029304029302949e-01
4.500255584716796875e-01,-1.134889753566792336e-01,1.027472527472529151e+00,5.831501831501828548e-01
4.600257873535156250e-01,-1.020447089341569580e-01,1.192307692307693401e+00,6.065934065934062147e-01
4.700262546539306641e-01,-8.869306477454763638e-02,1.225274725274726251e+00,6.358974358974354146e-01
4.800269603729248047e-01,-7.495994506752090558e-02,1.478021978021978100e+00,6.183150183150178947e-01
4.900274276733398438e-01,-6.046387426565935641e-02,1.280219780219781001e+00,7.648351648351656706e-01
5.000278949737548828e-01,-4.558632791638039805e-02,1.697802197802197099e+00,6.300366300366295746e-01
5.100283622741699219e-01,-2.956435492484921213e-02,1.543956043956043800e+00,8.644688644688649504e-01
5.200290679931640625e-01,-1.316090638590061701e-02,1.950549450549448949e+00,7.472527472527463743e-01
5.300297737121582031e-01,3.624017700465387293e-03,1.631868131868131400e+00,8.234432234432240705e-01
5.400304794311523438e-01,2.193484397650102835e-02,1.862637362637361349e+00,8.820512820512824703e-01
5.500309467315673828e-01,4.024567025253666941e-02,1.950549450549448949e+00,8.644688644688649504e-01
5.600311756134033203e-01,5.893797207598971966e-02,1.950549450549448949e+00,8.761904761904766303e-01
5.700318813323974609e-01,7.877470054169499747e-02,1.895604395604394199e+00,8.468864468864474304e-01
5.800323486328125000e-01,9.899290455481768447e-02,1.950549450549448949e+00,9.816849816849817500e-01
5.900325775146484375e-01,1.195925841153577807e-01,2.148351648351649601e+00,9.641025641025642301e-01
6.000330448150634766e-01,1.409552147707326952e-01,2.115384615384616751e+00,9.641025641025642301e-01
6.100332736968994141e-01,1.623178454261076098e-01,2.302197802197802901e+00,9.113553113553116702e-01
6.200339794158935547e-01,1.844434271763173427e-01,2.214285714285715301e+00,9.054945054945058303e-01
6.300346851348876953e-01,2.069504844739444849e-01,2.181318681318682451e+00,9.347985347985350302e-01
6.400356292724609375e-01,2.298390173189890362e-01,2.247252747252748151e+00,8.586080586080591104e-01
6.500360965728759766e-01,2.531090257114527731e-01,2.269230769230770051e+00,9.113553113553116702e-01
6.600365638732910156e-01,2.763790341039147336e-01,2.247252747252748151e+00,8.937728937728941503e-01
6.700372695922851562e-01,3.000305180437941033e-01,2.302197802197802901e+00,9.816849816849817500e-01
6.800382137298583984e-01,3.236820019836734730e-01,2.302197802197802901e+00,9.113553113553116702e-01
6.900386810302734375e-01,3.477149614709702519e-01,2.368131868131868600e+00,9.465201465201467101e-01
7.000393867492675781e-01,3.713664454108496216e-01,2.434065934065934300e+00,8.468864468864474304e-01
7.100400924682617188e-01,3.950179293507289913e-01,2.401098901098901450e+00,8.351648351648357504e-01
7.200412750244140625e-01,4.179064621957735426e-01,2.368131868131868600e+00,7.765567765567773506e-01
7.300422191619873047e-01,4.411764705882355031e-01,2.247252747252748151e+00,7.238095238095230144e-01
7.400426864624023438e-01,4.636835278858626452e-01,2.269230769230770051e+00,6.358974358974354146e-01
7.500431537628173828e-01,4.858091096360723782e-01,2.181318681318682451e+00,5.128205128205127750e-01
7.600433826446533203e-01,5.064087891966124744e-01,2.181318681318682451e+00,4.835164835164835750e-01
7.700438499450683594e-01,5.270084687571525706e-01,2.016483516483518201e+00,4.131868131868134952e-01
7.800443172454833984e-01,5.468451972228578484e-01,2.016483516483518201e+00,3.780219780219784553e-01
7.900445461273193359e-01,5.647745479514760802e-01,1.763736263736262799e+00,3.018315018315025355e-01
8.000450134277343750e-01,5.819409475852594937e-01,1.664835164835164250e+00,1.963369963369956395e-01
8.100452423095703125e-01,5.975814450293732705e-01,1.510989010989010950e+00,1.728937728937722795e-01
8.200457096099853516e-01,6.120775158312348196e-01,1.313186813186813851e+00,1.025641025641021997e-01
8.300461769104003906e-01,6.250476844434267321e-01,1.280219780219781001e+00,6.153846153846131983e-02
8.400468826293945312e-01,6.364919508659490077e-01,1.126373626373627701e+00,2.051282051282043994e-02
8.500473499298095703e-01,6.464103150988016466e-01,8.406593406593394491e-01,5.567765567765547985e-02
8.600478172302246094e-01,6.536583504997324212e-01,7.417582417582408993e-01,2.930402930402919992e-03
8.700485229492187500e-01,6.605249103532457866e-01,6.428571428571423496e-01,-5.567765567765547985e-02
8.800492286682128906e-01,6.658655680170895153e-01,4.890109890109890500e-01,2.930402930402919992e-03
8.900496959686279297e-01,6.692988479438461979e-01,3.571428571428576504e-01,-2.637362637362627993e-02
9.000501632690429688e-01,6.715877012283506531e-01,2.252747252747262507e-01,-4.981684981684963986e-02
9.100506305694580078e-01,6.738765545128551082e-01,1.373626373626386510e-01,2.930402930402919992e-03
9.200513362884521484e-01,6.731136034180202898e-01,-6.043956043956200119e-02,-8.791208791208759976e-03
9.300520420074462891e-01,6.723506523231854715e-01,-2.747252747252915128e-02,-9.670329670329635974e-02
9.400522708892822266e-01,6.715877012283506531e-01,-1.813186813186824509e-01,1.435897435897430796e-01
9.500529766082763672e-01,6.658655680170895153e-01,-8.846153846153832490e-01,-7.912087912087883979e-02
9.600532054901123047e-01,6.666285191119243336e-01,4.560439560439562001e-01,2.505494505494505475e+00
9.700539112091064453e-01,6.593804837109935590e-01,-7.637362637362627993e-01,2.505494505494505475e+00
9.800543785095214844e-01,6.578545815213239223e-01,-2.472527472527481507e-01,2.652014652014651475e+00
9.900546073913574219e-01,6.548027771419846488e-01,-2.747252747252915128e-02,2.241758241758240899e+00
1.000055551528930664e+00,6.536583504997324212e-01,-2.142857142857153008e-01,2.265201465201466036e+00
1.010055780410766602e+00,6.532768749523150120e-01,1.373626373626386510e-01,1.936996336996337220e+00
1.020057201385498047e+00,6.532768749523150120e-01,3.846153846154010125e-02,1.720146520146519364e+00
1.030057907104492188e+00,6.540398260471498304e-01,1.043956043956058011e-01,1.479853479853479925e+00
1.040058135986328125e+00,6.559472037842368763e-01,1.923076923076934008e-01,1.550183150183150005e+00
1.050058603286743164e+00,6.567101548790716947e-01,1.703296703296715009e-01,1.468131868131868245e+00
1.060058832168579102e+00,6.578545815213239223e-01,3.846153846154010125e-02,1.509157509157509125e+00
1.070059299468994141e+00,6.597619592584109682e-01,1.923076923076934008e-01,1.497435897435897445e+00
1.080060005187988281e+00,6.609063859006631958e-01,1.373626373626386510e-01,1.526739926739926645e+00
1.090060234069824219e+00,6.620508125429154234e-01,7.142857142857295116e-02,1.520879120879120805e+00
1.100060701370239258e+00,6.631952391851676509e-01,1.373626373626386510e-01,1.515018315018314965e+00
1.110061407089233398e+00,6.639581902800024693e-01,7.142857142857295116e-02,1.544322344322344165e+00
1.120061874389648438e+00,6.647211413748372877e-01,1.373626373626386510e-01,1.503296703296703285e+00
1.130062580108642578e+00,6.647211413748372877e-01,-2.747252747252915128e-02,1.509157509157509125e+00
1.140063762664794922e+00,6.651026169222546969e-01,7.142857142857295116e-02,1.509157509157509125e+00
1.150064468383789062e+00,6.647211413748372877e-01,-6.043956043956200119e-02,1.515018315018314965e+00
1.160064697265625000e+00,6.647211413748372877e-01,3.846153846154010125e-02,1.520879120879120805e+00
1.170064926147460938e+00,6.643396658274198785e-01,5.494505494507251342e-03,1.509157509157509125e+00
1.180065631866455078e+00,6.639581902800024693e-01,-6.043956043956200119e-02,1.503296703296703285e+00
1.190065860748291016e+00,6.635767147325850601e-01,-2.747252747252915128e-02,1.503296703296703285e+00
1.200066566467285156e+00,6.635767147325850601e-01,-2.747252747252915128e-02,1.503296703296703285e+00
1.210066795349121094e+00,6.631952391851676509e-01,-2.747252747252915128e-02,1.503296703296703285e+00
1.220067977905273438e+00,6.631952391851676509e-01,5.494505494507251342e-03,1.503296703296703285e+00
1.230068683624267578e+00,6.631952391851676509e-01,3.846153846154010125e-02,1.503296703296703285e+00
1.240069150924682617e+00,6.631952391851676509e-01,-2.747252747252915128e-02,1.503296703296703285e+00
1.250069618225097656e+00,6.631952391851676509e-01,3.846153846154010125e-02,1.503296703296703285e+00
1.260069847106933594e+00,6.551842526894020580e-01,-1.500000000000000000e+00,-8.527472527472532704e-01
1.270070314407348633e+00,6.494621194781409201e-01,2.582417582417591007e-01,-1.895970695970696340e+00
1.280070781707763672e+00,6.448844129091320099e-01,-8.626373626373613490e-01,-1.298168498168498886e+00
1.290071010589599609e+00,6.361104753185315985e-01,-8.626373626373613490e-01,-1.415384615384615685e+00
1.300071477890014648e+00,6.239032578011745045e-01,-1.115384615384616751e+00,-1.491575091575091605e+00
1.310071706771850586e+00,6.109330891889825921e-01,-1.532967032967032850e+00,-1.292307692307693046e+00
1.320072174072265625e+00,5.930037384603643602e-01,-1.532967032967032850e+00,-1.632234432234431765e+00
1.330072879791259766e+00,5.746929121843287191e-01,-2.170329670329671501e+00,-1.257142857142858006e+00
1.340073585510253906e+00,5.521858548867015770e-01,-2.170329670329671501e+00,-1.397802197802198165e+00
1.350074291229248047e+00,5.285343709468222073e-01,-2.390109890109890500e+00,-1.345054945054945605e+00
1.360074996948242188e+00,5.014496070801861549e-01,-2.840659340659339449e+00,-1.380219780219780645e+00
1.370075702667236328e+00,4.724574654764630566e-01,-2.994505494505492749e+00,-1.421245421245421525e+00
1.380076885223388672e+00,4.400320439459832755e-01,-3.192307692307693401e+00,-1.538461538461538325e+00
1.390077352523803711e+00,4.072251468680860853e-01,-3.412087912087912400e+00,-1.374358974358974805e+00
1.400077819824218750e+00,3.706034943160148032e-01,-3.664835164835164250e+00,-1.491575091575091605e+00
1.410078048706054688e+00,3.332188906691087027e-01,-3.796703296703295649e+00,-1.391941391941392325e+00
1.420078516006469727e+00,2.927824826428633287e-01,-4.049450549450551051e+00,-1.526739926739926645e+00
1.430078744888305664e+00,2.515831235217831363e-01,-4.313186813186813851e+00,-1.327472527472528085e+00
1.440078973770141602e+00,2.080949111161967124e-01,-4.313186813186813851e+00,-1.468131868131868245e+00
1.450079441070556641e+00,1.626993209735250190e-01,-4.664835164835164250e+00,-1.462271062271062405e+00
1.460079669952392578e+00,1.169222552834359163e-01,-4.697802197802197099e+00,-1.485714285714285765e+00
1.470080614089965820e+00,6.733043411917272181e-02,-4.917582417582416099e+00,-1.515018315018314965e+00
1.480081319808959961e+00,1.773861295490952728e-02,-5.104395604395605801e+00,-1.468131868131868245e+00
1.490082025527954102e+00,-3.376058594644071320e-02,-5.269230769230770051e+00,-1.485714285714285765e+00
1.500082731246948242e+00,-8.754863813229540881e-02,-5.335164835164835750e+00,-1.503296703296703285e+00
1.510083198547363281e+00,-1.409552147707326952e-01,-5.423076923076923350e+00,-1.456410256410256565e+00
1.520083904266357422e+00,-1.966506446936744368e-01,-5.521978021978021900e+00,-1.444688644688644885e+00
1.530084848403930664e+00,-2.523460746166179547e-01,-5.554945054945054750e+00,-1.485714285714285765e+00
1.540085077285766602e+00,-3.072785534447248779e-01,-5.686813186813186149e+00,-1.503296703296703285e+00
1.550085544586181641e+00,-3.641184100099188470e-01,-5.620879120879120450e+00,-1.479853479853479925e+00
1.560085773468017578e+00,-4.201953154802779977e-01,-5.686813186813186149e+00,-1.450549450549450725e+00
1.570086717605590820e+00,-4.793240253299764220e-01,-5.906593406593405149e+00,-1.485714285714285765e+00
1.580087423324584961e+00,-5.376897840848400278e-01,-5.906593406593405149e+00,-1.491575091575091605e+00
1.590088129043579102e+00,-5.952925917448688153e-01,-5.906593406593405149e+00,-1.427106227106227365e+00
1.600089073181152344e+00,-6.536583504997324212e-01,-5.840659340659339449e+00,-1.532600732600732485e+00
1.610090017318725586e+00,-7.116426337071786179e-01,-5.686813186813186149e+00,-1.526739926739926645e+00
1.620090484619140625e+00,-7.696269169146265909e-01,-5.620879120879120450e+00,-1.462271062271062405e+00
1.630091190338134766e+00,-8.260852979324031509e-01,-5.620879120879120450e+00,-1.491575091575091605e+00
1.640091419219970703e+00,-8.810177767605100740e-01,-5.489010989010989050e+00,-1.028571428571428470e+00
1.650091886520385742e+00,-9.351873044937821788e-01,-5.269230769230770051e+00,-2.608058608058616556e-01
1.660092115402221680e+00,-9.843976501106279642e-01,-4.697802197802197099e+00,3.956043956043959753e-01
1.670092582702636719e+00,-1.030556191348134476e+00,-5.038461538461540101e+00,1.731868131868131044e+00
1.680093526840209961e+00,-1.081292439154649898e+00,-4.532967032967032850e+00,1.345054945054945605e+00
1.690093994140625000e+00,-1.123636224917982318e+00,-4.368131868131868600e+00,1.456410256410256565e+00
1.700094699859619141e+00,-1.164454108491645101e+00,-3.862637362637361349e+00,1.397802197802198165e+00
1.710094928741455078e+00,-1.200312809948881565e+00,-3.445054945054945250e+00,1.421245421245421525e+00
1.720095396041870117e+00,-1.231593804837109118e+00,-2.961538461538459899e+00,1.520879120879120805e+00
1.730095624923706055e+00,-1.260967421988251402e+00,-2.807692307692306599e+00,1.438827838827839045e+00
1.740096092224121094e+00,-1.284237430380713363e+00,-2.236263736263737201e+00,1.497435897435897445e+00
1.750096797943115234e+00,-1.305600061036088277e+00,-1.884615384615383249e+00,1.497435897435897445e+00
1.760097265243530273e+00,-1.321240558480202054e+00,-1.269230769230770051e+00,1.456410256410256565e+00
1.770097732543945312e+00,-1.334973678187228785e+00,-1.335164835164835750e+00,1.438827838827839045e+00
1.780098199844360352e+00,-1.341840238040742150e+00,-3.131868131868138505e-01,1.456410256410256565e+00
1.790098428726196289e+00,-1.347943846799420697e+00,-6.318681318681313996e-01,1.497435897435897445e+00
1.800098896026611328e+00,-1.349469748989090334e+00,-6.043956043956200119e-02,1.034432234432234310e+00
1.810099601745605469e+00,-1.345273517967498833e+00,5.219780219780218999e-01,1.368498168498168965e+00
1.820100307464599609e+00,-1.339932860303655104e+00,6.758241758241751995e-01,1.391941391941392325e+00
1.830100774765014648e+00,-1.329633020523385056e+00,1.247252747252748151e+00,1.538461538461538325e+00
1.840101480484008789e+00,-1.316281376363775735e+00,1.664835164835164250e+00,1.268864468864469686e+00
1.850101947784423828e+00,-1.298733501182574912e+00,1.796703296703295649e+00,1.515018315018314965e+00
1.860102176666259766e+00,-1.278896772716869634e+00,2.214285714285715301e+00,1.526739926739926645e+00
1.870102643966674805e+00,-1.254482337682155446e+00,2.719780219780218999e+00,1.432967032967033205e+00
1.880102872848510742e+00,-1.227397573815517617e+00,2.785714285714284699e+00,1.520879120879120805e+00
1.890103101730346680e+00,-1.196116578927290064e+00,3.324175824175824800e+00,1.403663003663004005e+00
1.900103569030761719e+00,-1.161402304112305828e+00,3.489010989010989050e+00,1.421245421245421525e+00
1.910103797912597656e+00,-1.123636224917982318e+00,4.093406593406594851e+00,1.427106227106227365e+00
1.920104265213012695e+00,-1.081292439154649898e+00,4.291208791208791951e+00,1.468131868131868245e+00
1.930104732513427734e+00,-1.036278324559395614e+00,4.609890109890109500e+00,1.386080586080586485e+00
1.940105438232421875e+00,-9.889753566796368744e-01,4.829670329670328499e+00,1.380219780219780645e+00
1.950105905532836914e+00,-9.382391088731214523e-01,5.181318681318682451e+00,1.397802197802198165e+00
1.960106134414672852e+00,-8.852140077821015751e-01,5.434065934065934300e+00,1.386080586080586485e+00
