time,position,velocity,torque
0.000000000000000000e+00,1.907377737087045944e-04,5.494505494507251342e-03,-2.930402930402919992e-03
1.000070571899414062e-02,-3.624017700465387293e-03,-8.626373626373613490e-01,-5.655677655677653348e-01
2.000164985656738281e-02,-5.912870984969842425e-03,5.219780219780218999e-01,-8.234432234432240705e-01
3.000187873840332031e-02,-6.675822079804660802e-03,-5.329670329670328499e-01,-6.417582417582412546e-01
4.000234603881835938e-02,-7.438773174639479180e-03,1.923076923076934008e-01,-3.721611721611726153e-01
5.000281333923339844e-02,-1.163500419623098026e-02,-6.318681318681313996e-01,-6.593406593406587746e-01
6.000328063964843750e-02,-1.354238193331802620e-02,-2.747252747252915128e-02,-7.120879120879113344e-01
7.000398635864257812e-02,-1.850156404974434565e-02,-5.329670329670328499e-01,-8.000000000000007105e-01
8.000445365905761719e-02,-2.193484397650102835e-02,-2.142857142857153008e-01,-8.468864468864474304e-01
9.000539779663085938e-02,-2.765697718776216618e-02,-5.989010989010985497e-01,-8.703296703296707904e-01
1.000063419342041016e-01,-3.299763485160589482e-02,-5.989010989010985497e-01,-9.113553113553116702e-01
1.100072860717773438e-01,-3.986419470511926022e-02,-7.307692307692299494e-01,-8.527472527472532704e-01
1.200077533721923828e-01,-4.711223010605003481e-02,-6.318681318681313996e-01,-8.820512820512824703e-01
1.300082206726074219e-01,-5.474174105439821858e-02,-8.626373626373613490e-01,-8.410256410256415904e-01
1.400089263916015625e-01,-6.351567864499862992e-02,-8.296703296703284991e-01,-8.000000000000007105e-01
1.500096321105957031e-01,-7.228961623559904126e-02,-7.967032967032956492e-01,-7.296703296703288544e-01
1.600100994110107422e-01,-8.220798046845168017e-02,-1.082417582417583901e+00,-7.120879120879113344e-01
1.700112819671630859e-01,-9.212634470130431907e-02,-9.835164835164817987e-01,-5.597069597069594948e-01
1.800119876861572266e-01,-1.024261844815743672e-01,-1.148351648351649601e+00,-5.479853479853478149e-01
1.900124549865722656e-01,-1.127260242618444153e-01,-8.846153846153832490e-01,-3.545787545787550954e-01
2.000129222869873047e-01,-1.234073395895318725e-01,-1.082417582417583901e+00,-2.901098901098908556e-01
2.100133895874023438e-01,-1.329442282749671023e-01,-8.626373626373613490e-01,-1.260073260073255597e-01
2.200138568878173828e-01,-1.420996414129849228e-01,-8.296703296703284991e-01,-3.223443223443211991e-02
2.300143241882324219e-01,-1.489662012664982882e-01,-4.450549450549452501e-01,6.739926739926715982e-02
2.400147914886474609e-01,-1.569771877622638812e-01,-1.269230769230770051e+00,2.608058608058616556e-01
2.500157356262207031e-01,-1.661326009002817017e-01,-5.329670329670328499e-01,2.021978021978014795e-01
2.600159645080566406e-01,-1.726176852063776579e-01,-1.016483516483518201e+00,3.545787545787550954e-01
2.700164318084716797e-01,-1.802471961547258417e-01,-5.659340659340656998e-01,4.131868131868134952e-01
2.800166606903076172e-01,-1.855878538185695703e-01,-6.648351648351642496e-01,4.893772893772894150e-01
2.900171279907226562e-01,-1.905470359349958898e-01,-4.120879120879124002e-01,5.597069597069594948e-01
3.000175952911376953e-01,-1.943617914091699816e-01,-3.461538461538467004e-01,6.183150183150178947e-01
3.100183010101318359e-01,-1.962691691462570276e-01,-2.472527472527481507e-01,7.003663003662996545e-01
3.200194835662841797e-01,-1.974135957885092552e-01,1.043956043956058011e-01,6.945054945054938145e-01
3.300201892852783203e-01,-1.974135957885092552e-01,3.846153846154010125e-02,7.413919413919405343e-01
3.400213718414306641e-01,-1.966506446936744368e-01,1.703296703296715009e-01,7.648351648351656706e-01
3.500223159790039062e-01,-1.939803158617525725e-01,3.901098901098905003e-01,2.256410256410248394e-01
3.600225448608398438e-01,-1.913099870298307081e-01,5.439560439560437999e-01,5.597069597069594948e-01
3.700230121612548828e-01,-1.863508049134043887e-01,2.912087912087919506e-01,8.351648351648357504e-01
3.800232410430908203e-01,-1.810101472495606600e-01,6.428571428571423496e-01,7.413919413919405343e-01
3.900234699249267578e-01,-1.749065384908821130e-01,7.087912087912080494e-01,6.593406593406587746e-01
4.000239372253417969e-01,-1.672770275425339292e-01,6.428571428571423496e-01,6.710622710622704545e-01
4.100241661071777344e-01,-1.596475165941857455e-01,8.076923076923065992e-01,6.827838827838821345e-01
4.200246334075927734e-01,-1.504921034561679249e-01,8.406593406593394491e-01,6.241758241758237347e-01
4.300253391265869141e-01,-1.401922636758978769e-01,1.225274725274726251e+00,6.476190476190470946e-01
4.400258064270019531e-01,-1.302738994430452379e-01,9.615384615384598987e-01,6.886446886446879745e-01
4.500267505645751953e-01,-1.184481574731055531e-01,1.159340659340660551e+00,6.358974358974354146e-01
4.600269794464111328e-01,-1.066224155031658682e-01,1.093406593406594851e+00,7.120879120879113344e-01
4.700276851654052734e-01,-9.250782024872172826e-02,1.445054945054945250e+00,6.358974358974354146e-01
4.800279140472412109e-01,-7.915617608911240666e-02,1.445054945054945250e+00,7.824175824175831906e-01
4.900283813476562500e-01,-6.389715419241603911e-02,1.631868131868131400e+00,7.355311355311346944e-01
5.000288486480712891e-01,-4.978255893797189913e-02,1.510989010989010950e+00,7.531135531135539907e-01
5.100293159484863281e-01,-3.261615930418848563e-02,1.763736263736262799e+00,8.586080586080591104e-01
5.200300216674804688e-01,-1.735713740749211809e-02,1.730769230769229949e+00,7.238095238095230144e-01
5.300304889678955078e-01,9.536888685435229718e-04,1.576923076923076650e+00,8.761904761904766303e-01
5.400309562683105469e-01,1.888303959716175484e-02,1.862637362637361349e+00,8.644688644688649504e-01
5.500321388244628906e-01,3.681239032577998671e-02,1.796703296703295649e+00,8.234432234432240705e-01
5.600328445434570312e-01,5.550469214923303696e-02,1.950549450549448949e+00,8.175824175824182305e-01
5.700337886810302734e-01,7.495994506752090558e-02,1.862637362637361349e+00,9.641025641025642301e-01
5.800342559814453125e-01,9.517814908064359258e-02,2.082417582417583901e+00,9.758241758241759101e-01
5.900349617004394531e-01,1.157778286411836888e-01,2.115384615384616751e+00,9.465201465201467101e-01
6.000354290008544922e-01,1.363775082017237850e-01,2.148351648351649601e+00,9.347985347985350302e-01
6.100356578826904297e-01,1.577401388570986995e-01,2.181318681318682451e+00,9.465201465201467101e-01
6.200361251831054688e-01,1.794842450598910233e-01,2.082417582417583901e+00,9.641025641025642301e-01
6.300363540649414062e-01,2.019913023575181654e-01,2.181318681318682451e+00,9.816849816849817500e-01
6.400368213653564453e-01,2.244983596551453076e-01,2.247252747252748151e+00,1.069597069597069350e+00
6.500375270843505859e-01,2.473868925001898589e-01,2.214285714285715301e+00,1.040293040293040150e+00
6.600377559661865234e-01,2.710383764400710049e-01,2.401098901098901450e+00,1.069597069597069350e+00
6.700387001037597656e-01,2.943083848325329654e-01,2.368131868131868600e+00,1.022710622710622630e+00
6.800389289855957031e-01,3.179598687724123351e-01,2.467032967032967150e+00,1.022710622710622630e+00
6.900396347045898438e-01,3.416113527122917048e-01,2.401098901098901450e+00,9.816849816849817500e-01
7.000401020050048828e-01,3.652628366521710745e-01,2.467032967032967150e+00,9.113553113553116702e-01
7.100403308868408203e-01,3.885328450446330351e-01,2.401098901098901450e+00,8.117216117216123905e-01
7.200407981872558594e-01,4.121843289845124048e-01,2.368131868131868600e+00,7.472527472527463743e-01
7.300410270690917969e-01,4.343099107347221377e-01,2.214285714285715301e+00,6.886446886446879745e-01
7.400414943695068359e-01,4.568169680323492798e-01,2.247252747252748151e+00,5.890109890109886948e-01
7.500424385070800781e-01,4.789425497825590128e-01,2.016483516483518201e+00,5.714285714285711748e-01
7.600426673889160156e-01,4.995422293430991090e-01,1.983516483516481799e+00,5.128205128205127750e-01
7.700436115264892578e-01,5.205233844510566144e-01,2.016483516483518201e+00,4.717948717948718951e-01
7.800440788269042969e-01,5.392156862745096646e-01,1.950549450549448949e+00,4.131868131868134952e-01
7.900445461273193359e-01,5.571450370031278965e-01,1.763736263736262799e+00,3.076923076923083755e-01
8.000450134277343750e-01,5.739299610894939008e-01,1.631868131868131400e+00,3.135531135531142155e-01
8.100454807281494141e-01,5.895704585336076775e-01,1.445054945054945250e+00,2.783882783882791756e-01
8.200459480285644531e-01,6.044480048828866359e-01,1.576923076923076650e+00,1.670329670329664395e-01
8.300461769104003906e-01,6.174181734950785483e-01,1.247252747252748151e+00,2.373626373626365194e-01
8.400471210479736328e-01,6.292439154650182331e-01,1.346153846153846700e+00,1.201465201465197197e-01
8.500475883483886719e-01,6.399252307927056904e-01,8.956043956043941989e-01,1.728937728937722795e-01
8.600478172302246094e-01,6.479362172884712834e-01,7.417582417582408993e-01,9.084249084249051975e-02
8.700482845306396484e-01,6.551842526894020580e-01,5.439560439560437999e-01,4.395604395604379988e-02
8.800485134124755859e-01,6.620508125429154234e-01,6.428571428571423496e-01,2.051282051282043994e-02
8.900492191314697266e-01,6.670099946593417428e-01,2.582417582417591007e-01,4.395604395604379988e-02
9.000496864318847656e-01,6.696803234912636071e-01,1.373626373626386510e-01,4.395604395604379988e-02
9.100499153137207031e-01,6.681544213015939704e-01,-2.472527472527481507e-01,-1.465201465201459996e-02
9.200503826141357422e-01,6.677729457541765612e-01,-6.043956043956200119e-02,-9.084249084249051975e-02
9.300508499145507812e-01,6.673914702067591520e-01,5.494505494507251342e-03,-8.498168498168467977e-02
9.400515556335449219e-01,6.670099946593417428e-01,-9.340659340659485110e-02,-3.223443223443211991e-02
9.500520229339599609e-01,6.616693369954980142e-01,-5.659340659340656998e-01,-8.791208791208759976e-03
9.600522518157958984e-01,6.540398260471498304e-01,-8.296703296703284991e-01,-1.846153846153839595e-01
9.700527191162109375e-01,6.448844129091320099e-01,-9.835164835164817987e-01,-2.315018315018306794e-01
9.800529479980468750e-01,6.342030975814445526e-01,-1.049450549450551051e+00,-3.018315018315025355e-01
9.900534152984619141e-01,6.242847333485919137e-01,-1.082417582417583901e+00,-2.959706959706966956e-01
1.000053882598876953e+00,6.113145647364000013e-01,-1.236263736263737201e+00,-3.487179487179492554e-01
1.010054349899291992e+00,5.971999694819558613e-01,-1.500000000000000000e+00,-4.249084249084251752e-01
1.020055294036865234e+00,5.807965209430072662e-01,-1.785714285714284699e+00,-4.483516483516485351e-01
1.030055761337280273e+00,5.632486457618064435e-01,-1.818681318681317549e+00,-6.417582417582412546e-01
1.040056467056274414e+00,5.437933928435185749e-01,-2.038461538461540101e+00,-7.472527472527463743e-01
1.050058603286743164e+00,5.216678110933088419e-01,-2.291208791208791951e+00,-7.941391941391948706e-01
1.060058832168579102e+00,4.991607537956816998e-01,-2.390109890109890500e+00,-8.410256410256415904e-01
1.070059299468994141e+00,4.736018921187152841e-01,-2.642857142857142350e+00,-8.761904761904766303e-01
1.080059528350830078e+00,4.468986037994966409e-01,-2.774725274725273749e+00,-9.758241758241759101e-01
1.090059995651245117e+00,4.167620355535213150e-01,-3.027472527472529151e+00,-1.110622710622710230e+00
1.100060462951660156e+00,3.862439917601285799e-01,-3.093406593406594851e+00,-1.116483516483516070e+00
1.110060930252075195e+00,3.530556191348139805e-01,-3.445054945054945250e+00,-1.157509157509156950e+00
1.120061397552490234e+00,3.183413443198297443e-01,-3.543956043956043800e+00,-1.245421245421244549e+00
1.130061626434326172e+00,2.817196917677584622e-01,-3.796703296703295649e+00,-1.251282051282052166e+00
1.140062093734741211e+00,2.439536125734331762e-01,-3.829670329670328499e+00,-1.304029304029304726e+00
1.150062561035156250e+00,2.035172045471878022e-01,-3.994505494505492749e+00,-1.327472527472528085e+00
1.160062789916992188e+00,1.630807965209424282e-01,-4.181318681318682451e+00,-1.374358974358974805e+00
1.170063257217407227e+00,1.192111085679403715e-01,-4.346153846153846700e+00,-1.444688644688644885e+00
1.180063486099243164e+00,7.495994506752090558e-02,-4.686813186813186149e+00,-1.368498168498168965e+00
1.190064191818237305e+00,2.918287937743180294e-02,-4.598901098901098550e+00,-1.362637362637363125e+00
1.200064659118652344e+00,-1.888303959716175484e-02,-4.752747252747251849e+00,-1.350915750915751445e+00
1.210064888000488281e+00,-6.733043411917272181e-02,-5.016483516483518201e+00,-1.245421245421244549e+00
1.220065355300903320e+00,-1.188296330205229623e-01,-5.071428571428572951e+00,-1.198534798534797829e+00
1.230065584182739258e+00,-1.695658808270383844e-01,-5.016483516483518201e+00,-1.145787545787545270e+00
1.240066528320312500e+00,-2.218280308232234432e-01,-5.137362637362638651e+00,-9.992673992673992700e-01
1.250067472457885742e+00,-2.733272297245754601e-01,-5.170329670329671501e+00,-8.820512820512824703e-01
1.260068178176879883e+00,-3.236820019836734730e-01,-5.071428571428572951e+00,-8.351648351648357504e-01
1.270068883895874023e+00,-3.751812008850237135e-01,-5.016483516483518201e+00,-7.589743589743598307e-01
1.280069589614868164e+00,-4.266803997863739539e-01,-5.137362637362638651e+00,-6.769230769230762945e-01
1.290070056915283203e+00,-4.766536964980545577e-01,-5.071428571428572951e+00,-5.831501831501828548e-01
1.300070762634277344e+00,-5.270084687571525706e-01,-4.950549450549448949e+00,-5.479853479853478149e-01
1.310071229934692383e+00,-5.762188143739983559e-01,-4.818681318681317549e+00,-4.952380952380952550e-01
1.320071697235107422e+00,-6.258106355382615504e-01,-4.917582417582416099e+00,-4.190476190476193352e-01
1.330071926116943359e+00,-6.731136034180202898e-01,-4.719780219780218999e+00,-3.780219780219784553e-01
1.340072393417358398e+00,-7.204165712977790292e-01,-4.631868131868131400e+00,-3.428571428571434154e-01
1.350072860717773438e+00,-7.658121614404524991e-01,-4.532967032967032850e+00,-3.311355311355317355e-01
1.360073089599609375e+00,-8.085374227512023282e-01,-4.181318681318682451e+00,-3.604395604395609354e-01
1.370073556900024414e+00,-8.516441596093695665e-01,-4.148351648351649601e+00,-3.369963369963375754e-01
1.380073785781860352e+00,-8.913176165407801221e-01,-3.994505494505492749e+00,-3.487179487179492554e-01
1.390074491500854492e+00,-9.306095979247732686e-01,-3.697802197802197099e+00,-4.600732600732602151e-01
1.400074958801269531e+00,-9.679942015716793691e-01,-3.730769230769229949e+00,-4.131868131868134952e-01
1.410075426101684570e+00,-1.003471427481498424e+00,-3.412087912087912400e+00,-5.831501831501828548e-01
1.420075893402099609e+00,-1.038948653391317478e+00,-3.478021978021978100e+00,-6.300366300366295746e-01
1.430076360702514648e+00,-1.071374074921797259e+00,-3.093406593406594851e+00,-7.413919413919405343e-01
1.440076828002929688e+00,-1.104180971999694449e+00,-3.126373626373627701e+00,-8.644688644688649504e-01
1.450077295303344727e+00,-1.134699015793087185e+00,-2.994505494505492749e+00,-9.523809523809525501e-01
1.460077524185180664e+00,-1.164072632944227692e+00,-2.840659340659339449e+00,-9.347985347985350302e-01
1.470078468322753906e+00,-1.192683299000533381e+00,-2.609890109890109500e+00,-1.010989010989010950e+00
1.480079412460327148e+00,-1.219386587319752024e+00,-2.708791208791208049e+00,-1.005128205128205110e+00
1.490080118179321289e+00,-1.244945448996718440e+00,-2.489010989010989050e+00,-1.016849816849816790e+00
1.500080585479736328e+00,-1.268215457389182177e+00,-2.291208791208791951e+00,-1.063736263736263510e+00
1.510081052780151367e+00,-1.290341039139391910e+00,-2.137362637362638651e+00,-1.046153846153845990e+00
1.520081520080566406e+00,-1.311703669794766824e+00,-1.972527472527470849e+00,-9.758241758241759101e-01
1.530082225799560547e+00,-1.331158922713054693e+00,-1.785714285714284699e+00,-1.081318681318681030e+00
1.540082693099975586e+00,-1.349469748989090334e+00,-1.785714285714284699e+00,-9.992673992673992700e-01
1.550083160400390625e+00,-1.365873197528038929e+00,-1.686813186813186149e+00,-8.351648351648357504e-01
1.560083389282226562e+00,-1.381132219424735297e+00,-1.269230769230770051e+00,-9.172161172161175102e-01
1.570083856582641602e+00,-1.394865339131762028e+00,-1.500000000000000000e+00,-6.769230769230762945e-01
1.580084085464477539e+00,-1.405546654459449485e+00,-1.016483516483518201e+00,-6.710622710622704545e-01
1.590084552764892578e+00,-1.415846494239719533e+00,-1.148351648351649601e+00,-5.069597069597069350e-01
1.600085020065307617e+00,-1.423476005188067717e+00,-7.307692307692299494e-01,-4.190476190476193352e-01
1.610085248947143555e+00,-1.429198138399328855e+00,-4.780219780219781001e-01,-2.725274725274733356e-01
1.620085954666137695e+00,-1.431868467231250719e+00,-2.747252747252915128e-02,-1.260073260073255597e-01
1.630086183547973633e+00,-1.431868467231250719e+00,3.846153846154010125e-02,8.791208791208759976e-03
1.640086650848388672e+00,-1.429579613946746264e+00,1.703296703296715009e-01,1.728937728937722795e-01
1.650087356567382812e+00,-1.427672236209659218e+00,2.252747252747262507e-01,2.315018315018306794e-01
1.660087585449218750e+00,-1.422713054093232898e+00,5.439560439560437999e-01,3.252747252747258955e-01
1.670088052749633789e+00,-1.414702067597467305e+00,6.098901098901094997e-01,1.611721611721605996e-01
1.680088281631469727e+00,-1.403257801174945030e+00,1.510989010989010950e+00,4.483516483516485351e-01
1.690089702606201172e+00,-1.384184023804074570e+00,2.016483516483518201e+00,6.827838827838821345e-01
1.700090646743774414e+00,-1.368925001907378203e+00,1.510989010989010950e+00,8.937728937728941503e-01
1.710091590881347656e+00,-1.348325322346838107e+00,2.181318681318682451e+00,9.406593406593408702e-01
1.720092296600341797e+00,-1.325436789501793555e+00,2.401098901098901450e+00,9.758241758241759101e-01
1.730093002319335938e+00,-1.299877927824827140e+00,2.686813186813186149e+00,1.110622710622710230e+00
1.740093946456909180e+00,-1.270122835126269223e+00,3.005494505494507251e+00,1.186813186813186149e+00
1.750094890594482422e+00,-1.237697413595787665e+00,3.269230769230770051e+00,1.268864468864469686e+00
1.760095357894897461e+00,-1.201075761043716383e+00,3.939560439560437999e+00,1.427106227106227365e+00
1.770095825195312500e+00,-1.162165255207140646e+00,3.972527472527470849e+00,1.403663003663004005e+00
1.780096054077148438e+00,-1.118295567254138589e+00,4.675824175824175200e+00,1.403663003663004005e+00
1.790096521377563477e+00,-1.072137026016632078e+00,4.675824175824175200e+00,1.450549450549450725e+00
1.800096988677978516e+00,-1.022545204852368883e+00,5.115384615384616751e+00,1.468131868131868245e+00
1.810097455978393555e+00,-9.706645304036012334e-01,5.313186813186813851e+00,1.444688644688644885e+00
1.820098161697387695e+00,-9.153505760280769010e-01,5.598901098901098550e+00,1.362637362637363125e+00
1.830098390579223633e+00,-8.573662928206307043e-01,6.016483516483518201e+00,1.409523809523809845e+00
1.840098857879638672e+00,-7.951857785915930066e-01,6.302197802197802901e+00,1.444688644688644885e+00
1.850099086761474609e+00,-7.307164110780490773e-01,6.587912087912087600e+00,1.503296703296703285e+00
1.860099792480468750e+00,-6.628137636377502417e-01,6.840659340659341225e+00,1.333333333333333925e+00
1.870100259780883789e+00,-5.918593118181121326e-01,7.104395604395604025e+00,1.216117216117215349e+00
1.880100488662719727e+00,-5.197604333562217960e-01,7.357142857142857650e+00,1.145787545787545270e+00
1.890100955963134766e+00,-4.449912260624095950e-01,7.423076923076923350e+00,1.016849816849816790e+00
1.900101900100708008e+00,-3.694590676737625756e-01,7.576923076923076650e+00,8.761904761904766303e-01
1.910102128982543945e+00,-2.927824826428633287e-01,7.774725274725275526e+00,7.648351648351656706e-01
1.920102596282958984e+00,-2.138170443274578503e-01,7.928571428571428825e+00,6.652014652014646146e-01
1.930102825164794922e+00,-1.340886549172193298e-01,8.060439560439560225e+00,5.538461538461536549e-01
1.940103769302368164e+00,-5.092698558022412669e-02,8.181318681318680675e+00,4.307692307692310152e-01
1.950104475021362305e+00,2.994583047226662131e-02,8.060439560439560225e+00,2.901098901098908556e-01
