time,position,velocity,torque
0.000000000000000000e+00,1.907377737087045944e-04,7.142857142857295116e-02,2.930402930402919992e-03
5.000829696655273438e-03,-5.722133211261137831e-04,-2.142857142857153008e-01,-5.010989010989010950e-01
1.000142097473144531e-02,-1.335164415960932160e-03,-6.043956043956200119e-02,-5.948717948717945347e-01
1.500177383422851562e-02,-9.536888685435229718e-04,1.043956043956058011e-01,-7.062271062271054944e-01
2.000212669372558594e-02,-9.536888685435229718e-04,5.494505494507251342e-03,-5.714285714285711748e-01
2.500271797180175781e-02,-1.716639963378341349e-03,-1.593406593406605509e-01,-5.890109890109886948e-01
3.000307083129882812e-02,-2.479591058213159727e-03,-1.813186813186824509e-01,-6.652014652014646146e-01
3.500366210937500000e-02,-4.005493247882796481e-03,-2.802197802197810006e-01,-7.179487179487171744e-01
4.000377655029296875e-02,-4.386968795300205670e-03,-9.340659340659485110e-02,-7.296703296703288544e-01
4.500412940979003906e-02,-5.149919890135024048e-03,-9.340659340659485110e-02,-7.003663003662996545e-01
5.000448226928710938e-02,-6.294346532387251614e-03,-3.791208791208795503e-01,-6.827838827838821345e-01
5.500507354736328125e-02,-8.583199816891706746e-03,-3.791208791208795503e-01,-7.179487179487171744e-01
6.000542640686035156e-02,-9.727626459143934312e-03,-1.593406593406605509e-01,-8.000000000000007105e-01
6.500601768493652344e-02,-1.049057755397875269e-02,-3.131868131868138505e-01,-7.120879120879113344e-01
7.000613212585449219e-02,-1.316090638590061701e-02,-4.450549450549452501e-01,-6.945054945054938145e-01
7.500624656677246094e-02,-1.506828412298766295e-02,-4.120879120879124002e-01,-7.472527472527463743e-01
8.000683784484863281e-02,-1.735713740749211809e-02,-3.461538461538467004e-01,-6.886446886446879745e-01
8.500695228576660156e-02,-1.888303959716175484e-02,-4.780219780219781001e-01,-6.593406593406587746e-01
9.000706672668457031e-02,-2.155336842908361916e-02,-4.450549450549452501e-01,-6.124542124542120547e-01
9.500718116760253906e-02,-2.384222171358807429e-02,-4.780219780219781001e-01,-6.065934065934062147e-01
1.000075340270996094e-01,-2.651255054550993862e-02,-5.109890109890109500e-01,-6.007326007326003747e-01
1.050076484680175781e-01,-2.918287937743180294e-02,-5.109890109890109500e-01,-5.772893772893770148e-01
1.100077629089355469e-01,-3.185320820935366726e-02,-5.989010989010985497e-01,-5.362637362637361349e-01
1.150081157684326172e-01,-3.452353704127553158e-02,-4.780219780219781001e-01,-5.069597069597069350e-01
1.200082302093505859e-01,-3.795681696803221428e-02,-5.109890109890109500e-01,-5.186813186813186149e-01
1.250083446502685547e-01,-4.062714579995407860e-02,-5.989010989010985497e-01,-4.717948717948718951e-01
1.300086975097656250e-01,-4.367895017929335211e-02,-7.307692307692299494e-01,-4.014652014652018153e-01
1.350088119506835938e-01,-4.673075455863262562e-02,-5.329670329670328499e-01,-4.014652014652018153e-01
1.400089263916015625e-01,-4.978255893797189913e-02,-5.329670329670328499e-01,-3.721611721611726153e-01
1.450090408325195312e-01,-5.283436331731117264e-02,-6.648351648351642496e-01,-2.901098901098908556e-01
1.500091552734375000e-01,-5.588616769665044615e-02,-6.978021978021970995e-01,-2.959706959706966956e-01
1.550092697143554688e-01,-5.855649652857231047e-02,-5.329670329670328499e-01,-2.608058608058616556e-01
1.600093841552734375e-01,-6.198977645532899317e-02,-6.318681318681313996e-01,-2.373626373626365194e-01
1.650097370147705078e-01,-6.542305638208567586e-02,-6.318681318681313996e-01,-2.197802197802189994e-01
1.700100898742675781e-01,-6.809338521400754018e-02,-6.648351648351642496e-01,-1.553113553113547596e-01
1.750102043151855469e-01,-7.114518959334681369e-02,-6.318681318681313996e-01,-1.377289377289372396e-01
1.800103187561035156e-01,-7.419699397268608720e-02,-3.791208791208795503e-01,-1.318681318681313996e-01
1.850104331970214844e-01,-7.724879835202536071e-02,-7.637362637362627993e-01,-5.567765567765547985e-02
1.900105476379394531e-01,-7.991912718394722503e-02,-5.989010989010985497e-01,-3.809523809523795990e-02
1.950106620788574219e-01,-8.258945601586908936e-02,-3.461538461538467004e-01,-6.153846153846131983e-02
2.000110149383544922e-01,-8.487830930037354449e-02,-4.120879120879124002e-01,-1.465201465201459996e-02
2.050113677978515625e-01,-8.602273594262577205e-02,-6.043956043956200119e-02,8.791208791208759976e-03
2.100114822387695312e-01,-8.602273594262577205e-02,5.494505494507251342e-03,3.223443223443211991e-02
2.150115966796875000e-01,-8.716716258487799962e-02,-3.461538461538467004e-01,1.142857142857138797e-01
2.200117111206054688e-01,-9.098191805905209151e-02,-6.318681318681313996e-01,5.567765567765547985e-02
2.250118255615234375e-01,-9.441519798580877421e-02,-5.659340659340656998e-01,-3.809523809523795990e-02
2.300121784210205078e-01,-9.708552681773063853e-02,-5.989010989010985497e-01,-2.637362637362627993e-02
2.350122928619384766e-01,-9.861142900740027528e-02,-2.142857142857153008e-01,-8.791208791208759976e-03
2.400126457214355469e-01,-9.937438010223509366e-02,-9.340659340659485110e-02,3.223443223443211991e-02
2.450127601623535156e-01,-1.001373311970699120e-01,-1.263736263736277010e-01,1.201465201465197197e-01
2.500131130218505859e-01,-1.020447089341569580e-01,-4.780219780219781001e-01,1.494505494505489196e-01
2.550134658813476562e-01,-1.039520866712440039e-01,-4.780219780219781001e-01,8.498168498168467977e-02
2.600138187408447266e-01,-1.054779888609136407e-01,-2.472527472527481507e-01,9.084249084249051975e-02
2.650144100189208984e-01,-1.062409399557484591e-01,-6.043956043956200119e-02,1.377289377289372396e-01
2.700147628784179688e-01,-1.066224155031658682e-01,-1.263736263736277010e-01,2.549450549450558157e-01
2.750148773193359375e-01,-1.077668421454180958e-01,-4.120879120879124002e-01,3.311355311355317355e-01
2.800149917602539062e-01,-1.092927443350877326e-01,-2.802197802197810006e-01,3.428571428571434154e-01
2.850153446197509766e-01,-1.096742198825051418e-01,-6.043956043956200119e-02,3.369963369963375754e-01
2.900161743164062500e-01,-1.100556954299225509e-01,-6.043956043956200119e-02,3.780219780219784553e-01
2.950162887573242188e-01,-1.100556954299225509e-01,-9.340659340659485110e-02,4.131868131868134952e-01
3.000166416168212891e-01,-1.100556954299225509e-01,-2.747252747252915128e-02,4.307692307692310152e-01
3.050167560577392578e-01,-1.100556954299225509e-01,5.494505494507251342e-03,4.776556776556777351e-01
3.100171089172363281e-01,-1.092927443350877326e-01,1.373626373626386510e-01,5.304029304029302949e-01
3.150174617767333984e-01,-1.089112687876703234e-01,7.142857142857295116e-02,5.538461538461536549e-01
3.200175762176513672e-01,-1.081483176928355050e-01,1.703296703296715009e-01,5.421245421245419749e-01
3.250181674957275391e-01,-1.070038910505832774e-01,1.703296703296715009e-01,5.538461538461536549e-01
3.300189971923828125e-01,-1.054779888609136407e-01,3.901098901098905003e-01,6.183150183150178947e-01
3.350191116333007812e-01,-1.043335622186614131e-01,1.703296703296715009e-01,6.593406593406587746e-01
3.400192260742187500e-01,-1.031891355764091855e-01,3.241758241758248005e-01,6.124542124542120547e-01
3.450193405151367188e-01,-1.009002822919047304e-01,5.439560439560437999e-01,6.241758241758237347e-01
3.500196933746337891e-01,-9.861142900740027528e-02,4.230769230769233502e-01,7.003663003662996545e-01
3.550198078155517578e-01,-9.708552681773063853e-02,4.890109890109890500e-01,6.710622710622704545e-01
3.600199222564697266e-01,-9.403372243839136502e-02,4.560439560439562001e-01,6.827838827838821345e-01
3.650202751159667969e-01,-9.174486915388690988e-02,5.439560439560437999e-01,1.553113553113547596e-01
3.700203895568847656e-01,-9.060044251163468232e-02,2.252747252747262507e-01,3.604395604395609354e-01
3.750205039978027344e-01,-8.716716258487799962e-02,8.956043956043941989e-01,4.249084249084251752e-01
3.800206184387207031e-01,-8.220798046845168017e-02,9.945054945054927487e-01,5.890109890109886948e-01
3.850209712982177734e-01,-7.839322499427758828e-02,7.417582417582408993e-01,9.054945054945058303e-01
3.900210857391357422e-01,-7.648584725719054234e-02,4.890109890109890500e-01,8.117216117216123905e-01
3.950212001800537109e-01,-7.305256733043385964e-02,6.428571428571423496e-01,7.355311355311346944e-01
4.000217914581298828e-01,-6.809338521400754018e-02,8.736263736263722990e-01,7.941391941391948706e-01
4.050219058990478516e-01,-6.389715419241603911e-02,7.417582417582408993e-01,8.527472527472532704e-01
4.100220203399658203e-01,-5.970092317082453803e-02,9.285714285714270488e-01,7.824175824175831906e-01
4.150221347808837891e-01,-5.436026550698080939e-02,1.159340659340660551e+00,8.468864468864474304e-01
4.200222492218017578e-01,-4.940108339055448994e-02,1.027472527472529151e+00,9.347985347985350302e-01
4.250226020812988281e-01,-4.520485236896298886e-02,8.956043956043941989e-01,9.816849816849817500e-01
4.300229549407958984e-01,-3.986419470511926022e-02,9.945054945054927487e-01,9.054945054945058303e-01
4.350230693817138672e-01,-3.337911039902330401e-02,1.346153846153846700e+00,8.351648351648357504e-01
4.400231838226318359e-01,-2.765697718776216618e-02,1.093406593406594851e+00,9.816849816849817500e-01
4.450232982635498047e-01,-2.155336842908361916e-02,1.280219780219781001e+00,1.151648351648351110e+00
4.500234127044677734e-01,-1.621271076523989052e-02,1.027472527472529151e+00,1.046153846153845990e+00
4.550235271453857422e-01,-9.346150911726525123e-03,1.510989010989010950e+00,8.820512820512824703e-01
4.600238800048828125e-01,-2.098115510795750538e-03,1.510989010989010950e+00,9.465201465201467101e-01
4.650244712829589844e-01,5.149919890135024048e-03,1.247252747252748151e+00,1.180952380952380310e+00
4.700245857238769531e-01,1.163500419623098026e-02,1.379120879120879550e+00,1.087179487179486870e+00
4.750247001647949219e-01,1.888303959716175484e-02,1.598901098901098550e+00,8.937728937728941503e-01
4.800252914428710938e-01,2.765697718776216618e-02,1.631868131868131400e+00,1.098901098901098550e+00
4.850254058837890625e-01,3.452353704127553158e-02,1.247252747252748151e+00,1.192673992673991989e+00
4.900255203247070312e-01,4.177157244220630616e-02,1.576923076923076650e+00,9.347985347985350302e-01
4.950258731842041016e-01,5.130846112764153588e-02,1.917582417582416099e+00,9.230769230769233502e-01
5.000259876251220703e-01,5.970092317082453803e-02,1.576923076923076650e+00,1.169230769230768630e+00
5.050261020660400391e-01,6.771190966659013100e-02,1.445054945054945250e+00,1.069597069597069350e+00
5.100262165069580078e-01,7.648584725719054234e-02,1.829670329670328499e+00,1.040293040293040150e+00
5.150268077850341797e-01,8.564126039520836287e-02,1.862637362637361349e+00,1.116483516483516070e+00
5.200269222259521484e-01,9.479667353322618339e-02,1.950549450549448949e+00,1.028571428571428470e+00
5.250270366668701172e-01,1.043335622186614131e-01,1.983516483516481799e+00,1.139926739926739430e+00
5.300271511077880859e-01,1.138704509040966428e-01,1.829670329670328499e+00,1.122344322344321910e+00
5.350272655487060547e-01,1.234073395895318725e-01,1.917582417582416099e+00,1.063736263736263510e+00
5.400273799896240234e-01,1.333257038223845115e-01,1.983516483516481799e+00,1.139926739926739430e+00
5.450274944305419922e-01,1.428625925078197412e-01,2.016483516483518201e+00,9.582417582417583901e-01
5.500276088714599609e-01,1.535439078355071985e-01,2.148351648351649601e+00,1.040293040293040150e+00
5.550277233123779297e-01,1.638437476157772466e-01,2.049450549450551051e+00,1.093040293040292710e+00
5.600278377532958984e-01,1.737621118486298855e-01,2.049450549450551051e+00,1.034432234432234310e+00
5.650279521942138672e-01,1.848249027237347519e-01,2.049450549450551051e+00,1.052014652014651830e+00
5.700280666351318359e-01,1.951247425040048000e-01,2.148351648351649601e+00,9.230769230769233502e-01
5.750281810760498047e-01,2.058060578316922573e-01,2.302197802197802901e+00,9.816849816849817500e-01
5.800282955169677734e-01,2.168688487067971238e-01,2.214285714285715301e+00,9.289377289377291902e-01
5.850284099578857422e-01,2.279316395819019903e-01,2.181318681318682451e+00,1.040293040293040150e+00
5.900285243988037109e-01,2.382314793621720383e-01,2.082417582417583901e+00,9.465201465201467101e-01
5.950286388397216797e-01,2.496757457846943140e-01,2.302197802197802901e+00,8.293040293040299105e-01
6.000287532806396484e-01,2.611200122072183660e-01,2.302197802197802901e+00,9.347985347985350302e-01
6.050288677215576172e-01,2.721828030823232325e-01,2.181318681318682451e+00,9.465201465201467101e-01
6.100289821624755859e-01,2.828641184100106898e-01,2.082417582417583901e+00,9.465201465201467101e-01
6.150293350219726562e-01,2.946898603799503746e-01,2.335164835164835750e+00,7.648351648351656706e-01
6.200294494628906250e-01,3.065156023498900595e-01,2.368131868131868600e+00,8.820512820512824703e-01
6.250298023223876953e-01,3.175783932249949260e-01,2.181318681318682451e+00,8.293040293040299105e-01
6.300301551818847656e-01,3.290226596475172016e-01,2.335164835164835750e+00,8.996336996336999903e-01
6.350302696228027344e-01,3.397039749752046589e-01,2.148351648351649601e+00,7.413919413919405343e-01
6.400303840637207031e-01,3.515297169451443438e-01,2.401098901098901450e+00,7.062271062271054944e-01
6.450304985046386719e-01,3.629739833676666194e-01,2.269230769230770051e+00,7.941391941391948706e-01
6.500308513641357422e-01,3.740367742427714859e-01,2.247252747252748151e+00,8.058608058608065505e-01
6.550309658050537109e-01,3.847180895704589432e-01,2.148351648351649601e+00,7.648351648351656706e-01
6.600310802459716797e-01,3.961623559929812188e-01,2.302197802197802901e+00,6.183150183150178947e-01
6.650314331054687500e-01,4.079880979629209037e-01,2.269230769230770051e+00,6.652014652014646146e-01
6.700315475463867188e-01,4.186694132906083610e-01,2.181318681318682451e+00,6.652014652014646146e-01
6.750316619873046875e-01,4.293507286182958183e-01,2.148351648351649601e+00,7.003663003662996545e-01
6.800317764282226562e-01,4.400320439459832755e-01,2.148351648351649601e+00,5.421245421245419749e-01
6.850318908691406250e-01,4.510948348210881420e-01,2.148351648351649601e+00,5.362637362637361349e-01
6.900320053100585938e-01,4.617761501487755993e-01,2.049450549450551051e+00,5.597069597069594948e-01
6.950321197509765625e-01,4.720759899290456474e-01,2.115384615384616751e+00,5.538461538461536549e-01
7.000322341918945312e-01,4.823758297093156955e-01,1.950549450549448949e+00,5.831501831501828548e-01
7.050323486328125000e-01,4.919127183947509252e-01,1.917582417582416099e+00,4.483516483516485351e-01
7.100327014923095703e-01,5.025940337224383825e-01,2.148351648351649601e+00,4.249084249084251752e-01
7.150330543518066406e-01,5.125123979552910214e-01,1.895604395604394199e+00,4.776556776556777351e-01
7.200331687927246094e-01,5.216678110933088419e-01,1.917582417582416099e+00,4.542124542124543751e-01
7.250332832336425781e-01,5.308232242313266624e-01,1.895604395604394199e+00,4.893772893772894150e-01
7.300336360931396484e-01,5.395971618219270738e-01,1.697802197802197099e+00,4.014652014652018153e-01
7.350339889526367188e-01,5.483710994125274851e-01,1.697802197802197099e+00,3.018315018315025355e-01
7.400341033935546875e-01,5.571450370031278965e-01,1.697802197802197099e+00,3.428571428571434154e-01
7.450342178344726562e-01,5.651560234988934894e-01,1.379120879120879550e+00,3.545787545787550954e-01
7.500345706939697266e-01,5.731670099946590824e-01,1.598901098901098550e+00,3.663003663003667754e-01
7.550346851348876953e-01,5.807965209430072662e-01,1.565934065934065700e+00,3.780219780219784553e-01
7.600347995758056641e-01,5.884260318913554499e-01,1.445054945054945250e+00,3.135531135531142155e-01
7.650351524353027344e-01,5.960555428397036337e-01,1.445054945054945250e+00,2.490842490842481993e-01
7.700352668762207031e-01,6.025406271457995899e-01,1.412087912087912400e+00,2.725274725274733356e-01
7.750353813171386719e-01,6.094071869993129553e-01,1.280219780219781001e+00,2.725274725274733356e-01
7.800357341766357422e-01,6.158922713054089115e-01,1.280219780219781001e+00,2.315018315018306794e-01
7.850358486175537109e-01,6.219958800640874585e-01,1.225274725274726251e+00,2.783882783882791756e-01
7.900359630584716797e-01,6.269550621805137780e-01,9.615384615384598987e-01,3.018315018315025355e-01
7.950360774993896484e-01,6.322957198443575066e-01,9.945054945054927487e-01,2.315018315018306794e-01
8.000361919403076172e-01,6.376363775082012353e-01,1.126373626373627701e+00,1.494505494505489196e-01
8.050363063812255859e-01,6.425955596246275547e-01,1.126373626373627701e+00,1.377289377289372396e-01
8.100364208221435547e-01,6.467917906462190558e-01,8.956043956043941989e-01,1.318681318681313996e-01
8.150370121002197266e-01,6.506065461203931477e-01,7.747252747252737493e-01,1.260073260073255597e-01
8.200371265411376953e-01,6.540398260471498304e-01,7.417582417582408993e-01,6.739926739926715982e-02
8.250372409820556641e-01,6.570916304264891039e-01,6.428571428571423496e-01,2.051282051282043994e-02
8.300375938415527344e-01,6.597619592584109682e-01,4.230769230769233502e-01,3.223443223443211991e-02
8.350377082824707031e-01,6.624322880903328326e-01,6.098901098901094997e-01,-2.930402930402919992e-03
8.400378227233886719e-01,6.643396658274198785e-01,3.901098901098905003e-01,-3.223443223443211991e-02
8.450379371643066406e-01,6.666285191119243336e-01,4.230769230769233502e-01,-8.791208791208759976e-03
8.500382900238037109e-01,6.677729457541765612e-01,2.252747252747262507e-01,-2.637362637362627993e-02
8.550384044647216797e-01,6.689173723964287888e-01,2.252747252747262507e-01,-8.498168498168467977e-02
8.600387573242187500e-01,6.700617990386810163e-01,7.142857142857295116e-02,-8.498168498168467977e-02
8.650391101837158203e-01,6.696803234912636071e-01,-9.340659340659485110e-02,2.197802197802189994e-01
8.700392246246337891e-01,6.700617990386810163e-01,3.846153846154010125e-02,-4.395604395604379988e-02
8.750393390655517578e-01,6.692988479438461979e-01,-1.593406593406605509e-01,-1.377289377289372396e-01
8.800396919250488281e-01,6.681544213015939704e-01,-1.813186813186824509e-01,-1.963369963369956395e-01
8.850398063659667969e-01,6.673914702067591520e-01,-9.340659340659485110e-02,-2.373626373626365194e-01
8.900399208068847656e-01,6.662470435645069244e-01,-2.802197802197810006e-01,-2.373626373626365194e-01
8.950400352478027344e-01,6.635767147325850601e-01,-5.659340659340656998e-01,-2.901098901098908556e-01
9.000401496887207031e-01,6.601434348058283774e-01,-7.637362637362627993e-01,-3.311355311355317355e-01
9.050402641296386719e-01,6.567101548790716947e-01,-8.296703296703284991e-01,-3.780219780219784553e-01
9.100403785705566406e-01,6.525139238574801936e-01,-1.016483516483518201e+00,-3.897435897435901353e-01
9.150407314300537109e-01,6.486991683833061018e-01,-7.307692307692299494e-01,-4.073260073260076553e-01
9.200408458709716797e-01,6.456473640039668282e-01,-5.989010989010985497e-01,-4.014652014652018153e-01
9.250409603118896484e-01,6.414511329823753272e-01,-7.637362637362627993e-01,-3.663003663003667754e-01
9.300415515899658203e-01,6.361104753185315985e-01,-1.082417582417583901e+00,-3.721611721611726153e-01
9.350416660308837891e-01,6.303883421072704607e-01,-1.181318681318682451e+00,-4.600732600732602151e-01
9.400420188903808594e-01,6.250476844434267321e-01,-1.016483516483518201e+00,-5.304029304029302949e-01
9.450421333312988281e-01,6.185626001373307759e-01,-1.434065934065934300e+00,-5.421245421245419749e-01
9.500422477722167969e-01,6.120775158312348196e-01,-1.236263736263737201e+00,-6.124542124542120547e-01
9.550423622131347656e-01,6.055924315251388634e-01,-1.434065934065934300e+00,-6.652014652014646146e-01
9.600424766540527344e-01,5.979629205767906797e-01,-1.587912087912087600e+00,-6.124542124542120547e-01
9.650430679321289062e-01,5.895704585336076775e-01,-1.686813186813186149e+00,-6.534798534798529346e-01
9.700431823730468750e-01,5.811779964904246754e-01,-1.620879120879120450e+00,-8.117216117216123905e-01
9.750432968139648438e-01,5.724040588998242640e-01,-1.752747252747251849e+00,-8.117216117216123905e-01
9.800434112548828125e-01,5.628671702143890343e-01,-1.972527472527470849e+00,-8.937728937728941503e-01
