time,position,velocity,torque
0.000000000000000000e+00,1.907377737087045944e-04,-2.747252747252915128e-02,-2.930402930402919992e-03
1.000046730041503906e-02,-3.624017700465387293e-03,-8.626373626373613490e-01,-5.714285714285711748e-01
2.000093460083007812e-02,-6.294346532387251614e-03,4.560439560439562001e-01,-8.293040293040299105e-01
3.000164031982421875e-02,-6.294346532387251614e-03,-4.780219780219781001e-01,-6.065934065934062147e-01
4.000234603881835938e-02,-7.820248722056888369e-03,1.703296703296715009e-01,-3.604395604395609354e-01
5.000281333923339844e-02,-1.125352864881357107e-02,-5.659340659340656998e-01,-6.417582417582412546e-01
6.000328063964843750e-02,-1.354238193331802620e-02,5.494505494507251342e-03,-7.062271062271054944e-01
7.000350952148437500e-02,-1.812008850232693646e-02,-5.329670329670328499e-01,-7.765567765567773506e-01
8.000421524047851562e-02,-2.155336842908361916e-02,-2.802197802197810006e-01,-8.351648351648357504e-01
9.000444412231445312e-02,-2.689402609292734780e-02,-5.659340659340656998e-01,-8.937728937728941503e-01
1.000053882598876953e-01,-3.223468375677107645e-02,-4.450549450549452501e-01,-9.289377289377291902e-01
1.100058555603027344e-01,-3.910124361028444184e-02,-7.307692307692299494e-01,-8.293040293040299105e-01
1.200065612792968750e-01,-4.634927901121521643e-02,-7.637362637362627993e-01,-8.761904761904766303e-01
1.300072669982910156e-01,-5.436026550698080939e-02,-8.626373626373613490e-01,-8.820512820512824703e-01
1.400077342987060547e-01,-6.275272755016381154e-02,-1.082417582417583901e+00,-8.234432234432240705e-01
1.500082015991210938e-01,-7.152666514076422288e-02,-8.846153846153832490e-01,-7.296703296703288544e-01
1.600086688995361328e-01,-8.106355382619945260e-02,-9.835164835164817987e-01,-7.238095238095230144e-01
1.700093746185302734e-01,-9.098191805905209151e-02,-1.016483516483518201e+00,-5.421245421245419749e-01
1.800098419189453125e-01,-1.012817578393221396e-01,-9.505494505494489488e-01,-5.186813186813186149e-01
1.900100708007812500e-01,-1.119630731670095969e-01,-1.148351648351649601e+00,-3.487179487179492554e-01
2.000105381011962891e-01,-1.222629129472796450e-01,-1.016483516483518201e+00,-2.549450549450558157e-01
2.100110054016113281e-01,-1.317998016327148747e-01,-9.835164835164817987e-01,-1.142857142857138797e-01
2.200119495391845703e-01,-1.413366903181501044e-01,-7.307692307692299494e-01,-1.465201465201459996e-02
2.300128936767578125e-01,-1.482032501716634698e-01,-5.659340659340656998e-01,1.025641025641021997e-01
2.400135993957519531e-01,-1.558327611200116536e-01,-1.335164835164835750e+00,3.252747252747258955e-01
2.500145435333251953e-01,-1.649881742580294741e-01,-4.780219780219781001e-01,2.256410256410248394e-01
2.600157260894775391e-01,-1.714732585641254303e-01,-8.296703296703284991e-01,3.780219780219784553e-01
2.700161933898925781e-01,-1.783398184176387957e-01,-5.329670329670328499e-01,4.190476190476193352e-01
2.800166606903076172e-01,-1.844434271763173427e-01,-6.318681318681313996e-01,4.893772893772894150e-01
2.900176048278808594e-01,-1.882581826504914346e-01,-3.461538461538467004e-01,5.714285714285711748e-01
3.000180721282958984e-01,-1.920729381246655265e-01,-2.802197802197810006e-01,5.890109890109886948e-01
3.100192546844482422e-01,-1.939803158617525725e-01,-9.340659340659485110e-02,6.769230769230762945e-01
3.200197219848632812e-01,-1.955062180514222092e-01,-1.263736263736277010e-01,6.769230769230762945e-01
3.300206661224365234e-01,-1.951247425040048000e-01,1.043956043956058011e-01,6.886446886446879745e-01
3.400216102600097656e-01,-1.935988403143351633e-01,1.923076923076934008e-01,7.003663003662996545e-01
3.500220775604248047e-01,-1.913099870298307081e-01,1.923076923076934008e-01,7.238095238095230144e-01
3.600225448608398438e-01,-1.886396581979088438e-01,1.373626373626386510e-01,4.190476190476193352e-01
3.700232505798339844e-01,-1.829175249866477060e-01,7.417582417582408993e-01,6.300366300366295746e-01
3.800237178802490234e-01,-1.787212939650562049e-01,3.571428571428576504e-01,7.355311355311346944e-01
3.900244235992431641e-01,-1.714732585641254303e-01,7.747252747252737493e-01,6.593406593406587746e-01
4.000248908996582031e-01,-1.649881742580294741e-01,6.758241758241751995e-01,6.886446886446879745e-01
4.100253582000732422e-01,-1.565957122148464720e-01,1.027472527472529151e+00,6.945054945054938145e-01
4.200255870819091797e-01,-1.482032501716634698e-01,9.615384615384598987e-01,6.124542124542120547e-01
4.300260543823242188e-01,-1.382848859388108309e-01,8.956043956043941989e-01,6.593406593406587746e-01
4.400265216827392578e-01,-1.279850461585407828e-01,1.247252747252748151e+00,6.593406593406587746e-01
4.500281810760498047e-01,-1.161593041886010980e-01,1.192307692307693401e+00,6.476190476190470946e-01
4.600288867950439453e-01,-1.043335622186614131e-01,1.247252747252748151e+00,6.886446886446879745e-01
4.700293540954589844e-01,-9.098191805905209151e-02,1.346153846153846700e+00,6.534798534798529346e-01
4.800300598144531250e-01,-7.801174944686017909e-02,1.313186813186813851e+00,7.120879120879113344e-01
4.900305271148681641e-01,-6.275272755016381154e-02,1.664835164835164250e+00,6.769230769230762945e-01
5.000312328338623047e-01,-4.901960784313708075e-02,1.313186813186813851e+00,6.945054945054938145e-01
5.100321769714355469e-01,-3.223468375677107645e-02,1.598901098901098550e+00,8.468864468864474304e-01
5.200324058532714844e-01,-1.697566186007470890e-02,1.730769230769229949e+00,6.769230769230762945e-01
5.300328731536865234e-01,5.722133211261137831e-04,1.576923076923076650e+00,8.586080586080591104e-01
5.400331020355224609e-01,1.773861295490952728e-02,1.829670329670328499e+00,8.879120879120883103e-01
5.500335693359375000e-01,3.566796368352775914e-02,1.763736263736262799e+00,8.644688644688649504e-01
5.600340366363525391e-01,5.436026550698080939e-02,1.862637362637361349e+00,8.527472527472532704e-01
5.700342655181884766e-01,7.343404287785126883e-02,1.862637362637361349e+00,1.028571428571428470e+00
5.800347328186035156e-01,9.365224689097395583e-02,2.016483516483518201e+00,1.057875457875457670e+00
5.900349617004394531e-01,1.138704509040966428e-01,2.269230769230770051e+00,9.758241758241759101e-01
6.000356674194335938e-01,1.344701304646367390e-01,2.049450549450551051e+00,1.028571428571428470e+00
6.100361347198486328e-01,1.558327611200116536e-01,2.082417582417583901e+00,9.875457875457875900e-01
6.200363636016845703e-01,1.775768673228039773e-01,2.214285714285715301e+00,1.063736263736263510e+00
6.300368309020996094e-01,2.000839246204311195e-01,2.115384615384616751e+00,1.057875457875457670e+00
6.400370597839355469e-01,2.229724574654756708e-01,2.335164835164835750e+00,1.128205128205127750e+00
6.500375270843505859e-01,2.462424658579376313e-01,2.368131868131868600e+00,1.063736263736263510e+00
6.600379943847656250e-01,2.695124742504013682e-01,2.269230769230770051e+00,1.116483516483516070e+00
6.700384616851806641e-01,2.931639581902807379e-01,2.434065934065934300e+00,1.063736263736263510e+00
6.800391674041748047e-01,3.175783932249949260e-01,2.500000000000000000e+00,1.016849816849816790e+00
6.900398731231689453e-01,3.412298771648742957e-01,2.401098901098901450e+00,9.816849816849817500e-01
7.000403404235839844e-01,3.652628366521710745e-01,2.532967032967032850e+00,8.879120879120883103e-01
7.100410461425781250e-01,3.889143205920504442e-01,2.434065934065934300e+00,8.000000000000007105e-01
7.200419902801513672e-01,4.125658045319298139e-01,2.368131868131868600e+00,7.413919413919405343e-01
7.300426959991455078e-01,4.350728618295569561e-01,2.302197802197802901e+00,6.652014652014646146e-01
7.400429248809814453e-01,4.571984435797666890e-01,2.181318681318682451e+00,5.479853479853478149e-01
7.500433921813964844e-01,4.793240253299764220e-01,2.181318681318682451e+00,5.304029304029302949e-01
7.600438594818115234e-01,5.006866559853513365e-01,1.950549450549448949e+00,4.659340659340660551e-01
7.700440883636474609e-01,5.205233844510566144e-01,1.895604395604394199e+00,4.366300366300368552e-01
7.800450325012207031e-01,5.395971618219270738e-01,1.829670329670328499e+00,3.838827838827842953e-01
7.900452613830566406e-01,5.575265125505453057e-01,1.730769230769229949e+00,2.783882783882791756e-01
8.000457286834716797e-01,5.746929121843287191e-01,1.598901098901098550e+00,2.842490842490850156e-01
8.100461959838867188e-01,5.903334096284424959e-01,1.510989010989010950e+00,2.725274725274733356e-01
8.200466632843017578e-01,6.052109559777214542e-01,1.510989010989010950e+00,1.728937728937722795e-01
8.300473690032958984e-01,6.181811245899133667e-01,1.192307692307693401e+00,2.432234432234423593e-01
8.400478363037109375e-01,6.300068665598530515e-01,1.225274725274726251e+00,1.377289377289372396e-01
8.500480651855468750e-01,6.403067063401230996e-01,8.956043956043941989e-01,1.728937728937722795e-01
8.600487709045410156e-01,6.490806439307235109e-01,9.945054945054927487e-01,9.084249084249051975e-02
8.700489997863769531e-01,6.570916304264891039e-01,8.736263736263722990e-01,4.981684981684963986e-02
8.800494670867919922e-01,6.628137636377502417e-01,2.912087912087919506e-01,1.318681318681313996e-01
8.900496959686279297e-01,6.673914702067591520e-01,3.571428571428576504e-01,4.395604395604379988e-02
9.000504016876220703e-01,6.692988479438461979e-01,3.846153846154010125e-02,2.051282051282043994e-02
9.100506305694580078e-01,6.685358968490113796e-01,5.494505494507251342e-03,-7.326007326007299980e-02
9.200513362884521484e-01,6.685358968490113796e-01,-2.747252747252915128e-02,-8.498168498168467977e-02
9.300518035888671875e-01,6.673914702067591520e-01,-9.340659340659485110e-02,-8.498168498168467977e-02
9.400529861450195312e-01,6.666285191119243336e-01,-1.593406593406605509e-01,2.197802197802189994e-01
9.500539302825927734e-01,6.628137636377502417e-01,-9.175824175824160989e-01,-2.637362637362627993e-02
9.600543975830078125e-01,6.532768749523150120e-01,-9.505494505494489488e-01,-2.021978021978014795e-01
9.700548648834228516e-01,6.437399862668797823e-01,-7.967032967032956492e-01,-3.428571428571434154e-01
9.800555706024169922e-01,6.357289997711141893e-01,-9.505494505494489488e-01,-2.432234432234423593e-01
9.900560379028320312e-01,6.239032578011745045e-01,-1.335164835164835750e+00,-2.490842490842481993e-01
1.000056743621826172e+00,6.113145647364000013e-01,-1.236263736263737201e+00,-3.311355311355317355e-01
1.010057210922241211e+00,5.968184939345384521e-01,-1.532967032967032850e+00,-3.897435897435901353e-01
1.020057678222656250e+00,5.807965209430072662e-01,-1.785714285714284699e+00,-4.131868131868134952e-01
1.030058622360229492e+00,5.628671702143890343e-01,-1.785714285714284699e+00,-6.007326007326003747e-01
1.040059089660644531e+00,5.434119172961011657e-01,-2.104395604395605801e+00,-6.710622710622704545e-01
1.050060272216796875e+00,5.216678110933088419e-01,-2.236263736263737201e+00,-7.296703296703288544e-01
1.060060739517211914e+00,4.983978027008468814e-01,-2.423076923076923350e+00,-7.882783882783890306e-01
1.070060968399047852e+00,4.739833676661326933e-01,-2.521978021978021900e+00,-8.293040293040299105e-01
1.080061197280883789e+00,4.465171282520792317e-01,-2.807692307692306599e+00,-9.582417582417583901e-01
1.090061902999877930e+00,4.171435111009387242e-01,-3.060439560439562001e+00,-1.110622710622710230e+00
1.100062370300292969e+00,3.866254673075459891e-01,-3.225274725274726251e+00,-1.116483516483516070e+00
1.110062837600708008e+00,3.534370946822313897e-01,-3.291208791208791951e+00,-1.151648351648351110e+00
1.120063543319702148e+00,3.191042954146645627e-01,-3.510989010989010950e+00,-1.251282051282052166e+00
1.130064010620117188e+00,2.821011673151758714e-01,-3.730769230769229949e+00,-1.245421245421244549e+00
1.140064239501953125e+00,2.450980392156854037e-01,-3.829670329670328499e+00,-1.333333333333333925e+00
1.150065183639526367e+00,2.038986800946052114e-01,-4.016483516483518201e+00,-1.339194139194139765e+00
1.160065889358520508e+00,1.630807965209424282e-01,-4.247252747252748151e+00,-1.403663003663004005e+00
1.170066833496093750e+00,1.203555352101925990e-01,-4.313186813186813851e+00,-1.479853479853479925e+00
1.180067539215087891e+00,7.572289616235572396e-02,-4.565934065934065700e+00,-1.350915750915751445e+00
1.190068006515502930e+00,2.994583047226662131e-02,-4.500000000000000000e+00,-1.391941391941392325e+00
1.200068712234497070e+00,-1.773861295490952728e-02,-4.818681318681317549e+00,-1.362637362637363125e+00
1.210069179534912109e+00,-6.733043411917272181e-02,-5.038461538461540101e+00,-1.263003663003663846e+00
1.220069408416748047e+00,-1.173037308308533255e-01,-5.038461538461540101e+00,-1.227838827838827029e+00
1.230069875717163086e+00,-1.684214541847861568e-01,-5.071428571428572951e+00,-1.180952380952380310e+00
1.240070104598999023e+00,-2.195391775387189881e-01,-5.170329670329671501e+00,-1.057875457875457670e+00
1.250070571899414062e+00,-2.714198519874884141e-01,-5.203296703296704351e+00,-9.054945054945058303e-01
1.260071039199829102e+00,-3.229190508888386546e-01,-5.170329670329671501e+00,-8.410256410256415904e-01
1.270071268081665039e+00,-3.740367742427714859e-01,-5.104395604395605801e+00,-7.531135531135539907e-01
1.280071735382080078e+00,-4.255359731441217264e-01,-5.071428571428572951e+00,-6.827838827838821345e-01
1.290071964263916016e+00,-4.755092698558023301e-01,-4.983516483516481799e+00,-5.948717948717945347e-01
1.300072431564331055e+00,-5.266269932097351614e-01,-4.917582417582416099e+00,-5.421245421245419749e-01
1.310073137283325195e+00,-5.773632410162505835e-01,-4.884615384615383249e+00,-4.776556776556777351e-01
1.320073843002319336e+00,-6.258106355382615504e-01,-4.950549450549448949e+00,-4.014652014652018153e-01
1.330074310302734375e+00,-6.742580300602725174e-01,-4.719780219780218999e+00,-3.663003663003667754e-01
1.340074539184570312e+00,-7.207980468451964384e-01,-4.598901098901098550e+00,-3.252747252747258955e-01
1.350075006484985352e+00,-7.665751125352873174e-01,-4.467032967032967150e+00,-3.018315018315025355e-01
1.360075712203979492e+00,-8.100633249408719649e-01,-4.214285714285715301e+00,-3.252747252747258955e-01
1.370075941085815430e+00,-8.524071107042043849e-01,-4.214285714285715301e+00,-3.135531135531142155e-01
1.380077123641967773e+00,-8.932249942778671681e-01,-3.961538461538459899e+00,-3.135531135531142155e-01
1.390077829360961914e+00,-9.325169756618603145e-01,-3.796703296703295649e+00,-4.717948717948718951e-01
1.400078535079956055e+00,-9.695201037613490058e-01,-3.730769230769229949e+00,-4.190476190476193352e-01
1.410078763961791992e+00,-1.004997329671168060e+00,-3.412087912087912400e+00,-5.831501831501828548e-01
1.420079231262207031e+00,-1.040856031128404524e+00,-3.576923076923076650e+00,-6.065934065934062147e-01
1.430079936981201172e+00,-1.073281452658884305e+00,-3.291208791208791951e+00,-7.238095238095230144e-01
1.440080165863037109e+00,-1.105706874189364086e+00,-3.225274725274726251e+00,-8.527472527472532704e-01
1.450080871582031250e+00,-1.136224917982756821e+00,-2.906593406593405149e+00,-8.820512820512824703e-01
1.460081100463867188e+00,-1.165980010681314738e+00,-2.906593406593405149e+00,-8.761904761904766303e-01
1.470081567764282227e+00,-1.193827725642785609e+00,-2.675824175824175200e+00,-9.347985347985350302e-01
1.480082035064697266e+00,-1.219768062867169434e+00,-2.587912087912087600e+00,-9.289377289377291902e-01
1.490082502365112305e+00,-1.244945448996718440e+00,-2.423076923076923350e+00,-9.582417582417583901e-01
1.500082731246948242e+00,-1.268596932936599586e+00,-2.258241758241759101e+00,-9.992673992673992700e-01
1.510083675384521484e+00,-1.290722514686809319e+00,-2.104395604395605801e+00,-9.934065934065934300e-01
1.520084142684936523e+00,-1.311703669794766824e+00,-2.005494505494507251e+00,-9.406593406593408702e-01
1.530084609985351562e+00,-1.330395971618219875e+00,-1.653846153846153300e+00,-1.063736263736263510e+00
1.540084838867187500e+00,-1.348325322346838107e+00,-1.719780219780218999e+00,-9.582417582417583901e-01
1.550085067749023438e+00,-1.364347295338369292e+00,-1.532967032967032850e+00,-8.234432234432240705e-01
1.560085773468017578e+00,-1.379224841687648251e+00,-1.236263736263737201e+00,-9.758241758241759101e-01
1.570086002349853516e+00,-1.391813534752422754e+00,-1.236263736263737201e+00,-7.179487179487171744e-01
1.580086469650268555e+00,-1.403639276722362439e+00,-1.082417582417583901e+00,-7.531135531135539907e-01
1.590086698532104492e+00,-1.412794689860380259e+00,-8.626373626373613490e-01,-5.772893772893770148e-01
1.600087165832519531e+00,-1.420424200808728443e+00,-4.780219780219781001e-01,-5.831501831501828548e-01
1.610087633132934570e+00,-1.426146334019989581e+00,-5.659340659340656998e-01,-3.663003663003667754e-01
1.620088338851928711e+00,-1.429579613946746264e+00,-2.142857142857153008e-01,-2.608058608058616556e-01
1.630089282989501953e+00,-1.431105516136415901e+00,7.142857142857295116e-02,-1.494505494505489196e-01
1.640089750289916992e+00,-1.429961089494163673e+00,1.373626373626386510e-01,1.465201465201459996e-02
1.650090456008911133e+00,-1.427672236209659218e+00,3.901098901098905003e-01,9.670329670329635974e-02
1.660091400146484375e+00,-1.420805676356145852e+00,8.956043956043941989e-01,2.490842490842481993e-01
1.670091867446899414e+00,-1.412031738765545441e+00,9.615384615384598987e-01,1.084249084249080397e-01
1.680092334747314453e+00,-1.402494850080110211e+00,1.093406593406594851e+00,3.838827838827842953e-01
1.690092563629150391e+00,-1.386472877088579025e+00,1.829670329670328499e+00,4.952380952380952550e-01
1.700093030929565430e+00,-1.370069428549630430e+00,1.576923076923076650e+00,8.410256410256415904e-01
1.710093498229980469e+00,-1.351377126726177380e+00,2.016483516483518201e+00,8.527472527472532704e-01
1.720093727111816406e+00,-1.329633020523385056e+00,2.335164835164835750e+00,9.758241758241759101e-01
1.730094432830810547e+00,-1.304455634393836050e+00,2.653846153846153300e+00,1.169230769230768630e+00
1.740094661712646484e+00,-1.275844968337530361e+00,3.137362637362638651e+00,1.204395604395603669e+00
1.750095129013061523e+00,-1.244182497901883622e+00,3.170329670329671501e+00,1.333333333333333925e+00
1.760095596313476562e+00,-1.209086747539481976e+00,3.708791208791208049e+00,1.356776556776557285e+00
1.770095825195312500e+00,-1.170939192797741057e+00,3.840659340659339449e+00,1.485714285714285765e+00
1.780096292495727539e+00,-1.128213931486991228e+00,4.478021978021978100e+00,1.450549450549450725e+00
1.790096521377563477e+00,-1.083199816891736944e+00,4.642857142857142350e+00,1.432967032967033205e+00
1.800096988677978516e+00,-1.034370946822308568e+00,4.895604395604394199e+00,1.391941391941392325e+00
1.810098171234130859e+00,-9.824902723735409182e-01,5.346153846153846700e+00,1.403663003663004005e+00
1.820098400115966797e+00,-9.287022201876862226e-01,5.565934065934065700e+00,1.485714285714285765e+00
1.830099105834960938e+00,-8.710994125276574351e-01,5.851648351648350399e+00,1.444688644688644885e+00
1.840099334716796875e+00,-8.112077515831241925e-01,6.016483516483518201e+00,1.415384615384615685e+00
1.850100040435791016e+00,-7.452124818799106265e-01,6.489010989010989050e+00,1.421245421245421525e+00
1.860100746154785156e+00,-6.784542610818640185e-01,6.873626373626374075e+00,1.497435897435897445e+00
1.870101213455200195e+00,-6.090257114518955461e-01,7.071428571428571175e+00,1.427106227106227365e+00
1.880101680755615234e+00,-5.365453574425878003e-01,7.324175824175824800e+00,1.386080586080586485e+00
1.890102863311767578e+00,-4.621576256961930085e-01,7.510989010989010950e+00,1.245421245421244549e+00
1.900103569030761719e+00,-3.866254673075459891e-01,7.576923076923076650e+00,1.128205128205127750e+00
1.910104036331176758e+00,-3.088044556343945146e-01,7.862637362637363125e+00,9.992673992673992700e-01
1.920104265213012695e+00,-2.306019684138238546e-01,7.928571428571428825e+00,9.347985347985350302e-01
1.930104732513427734e+00,-1.489662012664982882e-01,8.181318681318680675e+00,7.413919413919405343e-01
1.940104961395263672e+00,-6.694895857175531262e-02,8.379120879120879550e+00,5.831501831501828548e-01
1.950105428695678711e+00,1.621271076523989052e-02,8.214285714285713524e+00,4.542124542124543751e-01
