time,position,velocity,torque
0.000000000000000000e+00,0.000000000000000000e+00,0.000000000000000000e+00,4.598937633416000370e-01
7.499999999999999722e-03,5.098499089235340731e-03,2.106594584206308018e-01,6.050003078085423036e-01
1.499999999999999944e-02,2.179310136863045130e-02,4.648506865968501933e-01,7.962164412582040107e-01
2.249999999999999917e-02,5.212797531491512870e-02,7.516812906487002621e-01,6.622220741214882578e-01
2.999999999999999889e-02,9.701677228546318199e-02,1.041888160835460653e+00,5.335235608032945498e-01
3.749999999999999861e-02,1.558516314415711035e-01,1.304302130300567075e+00,5.977773562434994803e-01
4.499999999999999833e-02,2.264721671426926652e-01,1.508413160960117017e+00,7.023376863353059107e-01
5.249999999999999806e-02,3.052639817670237954e-01,1.627025888469239678e+00,7.898014015881660299e-01
5.999999999999999778e-02,3.873872197689827712e-01,1.638651258612932038e+00,8.669751650763420914e-01
6.750000000000000444e-02,4.671065657021589157e-01,1.529178878185600610e+00,9.251064855212188798e-01
7.499999999999999722e-02,5.381832601782454706e-01,1.292610340834811966e+00,9.866127642065779524e-01
8.249999999999999001e-02,5.942789750193132603e-01,9.308855239987087193e-01,1.058102674741056237e+00
8.999999999999999667e-02,6.293370548910177664e-01,4.531918038105490210e-01,1.051542711707326827e+00
9.750000000000000333e-02,6.379256015448705464e-01,-1.247573382846813433e-01,1.111925922202591677e+00
1.049999999999999961e-01,6.155559151859423261e-01,-7.809234813143810516e-01,1.196182707836130676e+00
1.124999999999999889e-01,5.590072072965601713e-01,-1.486524901218860606e+00,1.257734006258137471e+00
1.199999999999999956e-01,4.666821837444453669e-01,-2.205281063271999464e+00,1.265246876842821777e+00
1.275000000000000022e-01,3.389911947190729635e-01,-2.893276185526465039e+00,1.229520264165837373e+00
1.350000000000000089e-01,1.786969954601233534e-01,-3.500884918197685991e+00,1.236633860683516994e+00
1.424999999999999878e-01,-8.729130747701582815e-03,-3.966903197528605318e+00,1.268699789951104995e+00
1.499999999999999944e-01,-2.147426191239530380e-01,-4.238641219367584867e+00,1.257204911805025471e+00
1.575000000000000011e-01,-4.291246435824059291e-01,-4.303077763677062961e+00,1.213288750321266374e+00
1.649999999999999800e-01,-6.418828879904614482e-01,-4.178119141002770931e+00,1.236831339365815463e+00
1.724999999999999867e-01,-8.439127448871055481e-01,-3.872172052435916001e+00,1.226653410347852580e+00
1.799999999999999933e-01,-1.026211295572164728e+00,-3.392946437206093346e+00,1.162556091300323668e+00
1.875000000000000000e-01,-1.180786319599902212e+00,-2.768185290855648795e+00,1.098198030338587206e+00
1.950000000000000067e-01,-1.301072236972550256e+00,-2.025535821133439995e+00,1.077898346830966414e+00
2.024999999999999856e-01,-1.381731804389473739e+00,-1.185972763274341757e+00,1.040843842019853804e+00
2.099999999999999922e-01,-1.418279539644442089e+00,-2.627212355043269110e-01,1.031623663940947067e+00
2.174999999999999989e-01,-1.406740532272748423e+00,7.363918732600961414e-01,9.598720048211016875e-01
2.249999999999999778e-01,-1.343497532278008944e+00,1.803831768078136388e+00,9.191578136731856086e-01
2.324999999999999845e-01,-1.225453555268464223e+00,2.924922062753533059e+00,9.476089603656735472e-01
2.399999999999999911e-01,-1.050610005439066796e+00,4.068871270457512956e+00,8.915711913836108504e-01
2.474999999999999978e-01,-8.191883033071455378e-01,5.174636447036889741e+00,8.675545044895742741e-01
2.550000000000000044e-01,-5.358763878614211107e-01,6.116391001606098499e+00,8.546924342200256097e-01
2.625000000000000111e-01,-2.123063257296123607e-01,6.773557382845123875e+00,8.431981680849378602e-01
2.700000000000000178e-01,1.358134337526706592e-01,7.092786347788048396e+00,8.219235763656491667e-01
2.774999999999999689e-01,4.911860099488162268e-01,7.067284007620994402e+00,8.499551354767957978e-01
2.849999999999999756e-01,8.375858701701550668e-01,6.746211611207431957e+00,8.369510497433274576e-01
2.924999999999999822e-01,1.162381005352904895e+00,6.220088071748273606e+00,8.283964150483462685e-01
2.999999999999999889e-01,1.457910413372395242e+00,5.592333867968196870e+00,8.682120417837075887e-01
3.074999999999999956e-01,1.721304777515169304e+00,4.944945579787073164e+00,8.447480469970939376e-01
3.150000000000000022e-01,1.952598134246675166e+00,4.308107577804656252e+00,8.531557508706782977e-01
3.225000000000000089e-01,2.152587030194347051e+00,3.698613953059350035e+00,8.293597225910626092e-01
3.299999999999999600e-01,2.323360650244395753e+00,3.142524029994429924e+00,8.396089818278071881e-01
3.374999999999999667e-01,2.467930114228383598e+00,2.651476315040624421e+00,8.535522313309660269e-01
3.449999999999999734e-01,2.589629825604743640e+00,2.227520322951100251e+00,8.500641096178375156e-01
3.524999999999999800e-01,2.691743907603079577e+00,1.867197099995331122e+00,8.229130030477359581e-01
3.599999999999999867e-01,2.777306739634797683e+00,1.564307752030383192e+00,8.230685834117630328e-01
3.674999999999999933e-01,2.849009805640281723e+00,1.311565540424704190e+00,7.999830683973714329e-01
3.750000000000000000e-01,2.909173268299448889e+00,1.101477623312715259e+00,7.981513647475072526e-01
3.825000000000000067e-01,2.959747017580880879e+00,9.268152868096770636e-01,7.436632337632020917e-01
3.900000000000000133e-01,3.002330259407785196e+00,7.807354799470610507e-01,7.497422650740187544e-01
3.974999999999999645e-01,3.038187792416192856e+00,6.567361272465183086e-01,7.671478223440927335e-01
4.049999999999999711e-01,3.068266130330835395e+00,5.485096442073508216e-01,7.544256804540485639e-01
4.124999999999999778e-01,3.093193611619217354e+00,4.496008957791277072e-01,7.332073469691425815e-01
4.199999999999999845e-01,3.113266260973829080e+00,3.531089478344593413e-01,7.046312339650786516e-01
4.274999999999999911e-01,3.128415049004370285e+00,2.512502371619363406e-01,6.971430797888970021e-01
4.349999999999999978e-01,3.138149035875978932e+00,1.348412866748577021e-01,6.799578680132113417e-01
4.425000000000000044e-01,3.141592653589792672e+00,1.084202172485504434e-18,6.701951166680851779e-01
4.499999999999999556e-01,3.141592653589792672e+00,1.084202172485504434e-18,6.337078245020245637e-01
4.574999999999999623e-01,3.141592653589792672e+00,1.084202172485504434e-18,6.664672739634448506e-01
4.649999999999999689e-01,3.141592653589792672e+00,1.084202172485504434e-18,6.168184857585969905e-01
4.724999999999999756e-01,3.141592653589792672e+00,1.084202172485504434e-18,6.466888172422599057e-01
4.799999999999999822e-01,3.141592653589792672e+00,1.084202172485504434e-18,6.239622688105774806e-01
4.874999999999999889e-01,3.141592653589792672e+00,1.084202172485504434e-18,6.290864664084910851e-01
4.949999999999999956e-01,3.141592653589792672e+00,1.084202172485504434e-18,6.102627418765443901e-01
5.024999999999999467e-01,3.141592653589792672e+00,1.084202172485504434e-18,6.331728319402245564e-01
5.100000000000000089e-01,3.141592653589792672e+00,1.084202172485504434e-18,6.108357885678242782e-01
5.174999999999999600e-01,3.141592653589792672e+00,1.084202172485504434e-18,6.194046671450912367e-01
5.250000000000000222e-01,3.141592653589792672e+00,1.084202172485504434e-18,6.317199089333541684e-01
5.324999999999999734e-01,3.141592653589792672e+00,1.084202172485504434e-18,5.993184448968232880e-01
5.400000000000000355e-01,3.141592653589792672e+00,1.084202172485504434e-18,6.064434055815455249e-01
5.474999999999999867e-01,3.141592653589792672e+00,1.084202172485504434e-18,5.653589491762107677e-01
5.549999999999999378e-01,3.141592653589792672e+00,1.084202172485504434e-18,5.433159116993033777e-01
5.625000000000000000e-01,3.141592653589792672e+00,1.084202172485504434e-18,5.203827224423326347e-01
5.699999999999999512e-01,3.141592653589792672e+00,1.084202172485504434e-18,4.975693861368430393e-01
5.775000000000000133e-01,3.141592653589792672e+00,1.084202172485504434e-18,4.415839326429218392e-01
5.849999999999999645e-01,3.141592653589792672e+00,1.084202172485504434e-18,3.934449536474357023e-01
5.925000000000000266e-01,3.141592653589792672e+00,1.084202172485504434e-18,3.702394454005817348e-01
5.999999999999999778e-01,3.141592653589792672e+00,1.084202172485504434e-18,3.185549633857350238e-01
6.074999999999999289e-01,3.141592653589792672e+00,1.084202172485504434e-18,2.778974473353276187e-01
6.149999999999999911e-01,3.141592653589792672e+00,1.084202172485504434e-18,2.338447181586235935e-01
6.224999999999999423e-01,3.141592653589792672e+00,1.084202172485504434e-18,1.707583923692553574e-01
6.300000000000000044e-01,3.141592653589792672e+00,1.084202172485504434e-18,9.000704332871099778e-02
6.374999999999999556e-01,3.141592653589792672e+00,1.084202172485504434e-18,4.782927086674621658e-02
6.450000000000000178e-01,3.141592653589792672e+00,1.084202172485504434e-18,-2.120826581012616452e-02
6.524999999999999689e-01,3.141592653589792672e+00,1.084202172485504434e-18,-1.036792888545766816e-01
6.599999999999999201e-01,3.141592653589792672e+00,1.084202172485504434e-18,-1.477337302069969827e-01
6.674999999999999822e-01,3.141592653589792672e+00,1.084202172485504434e-18,-2.581484770900659975e-01
6.749999999999999334e-01,3.141592653589792672e+00,1.084202172485504434e-18,-3.295710236386569236e-01
6.824999999999999956e-01,3.141592653589792672e+00,1.084202172485504434e-18,-4.108236886691118972e-01
6.899999999999999467e-01,3.141592653589792672e+00,1.084202172485504434e-18,-4.966673727141201478e-01
6.975000000000000089e-01,3.141592653589792672e+00,1.084202172485504434e-18,-5.581536962102913169e-01
7.049999999999999600e-01,3.141592653589792672e+00,1.084202172485504434e-18,-5.834134432743521836e-01
7.125000000000000222e-01,3.141592653589792672e+00,1.084202172485504434e-18,-6.005306620059317479e-01
7.199999999999999734e-01,3.141592653589792672e+00,1.084202172485504434e-18,-7.041867283132543509e-01
7.274999999999999245e-01,3.141592653589792672e+00,1.084202172485504434e-18,-7.459299373450952730e-01
7.349999999999999867e-01,3.141592653589792672e+00,1.084202172485504434e-18,-8.017708143664040721e-01
7.424999999999999378e-01,3.141592653589792672e+00,1.084202172485504434e-18,-8.485842565157167838e-01
7.500000000000000000e-01,3.141592653589792672e+00,1.084202172485504434e-18,-8.931202616649550619e-01
7.574999999999999512e-01,3.141592653589792672e+00,1.084202172485504434e-18,-9.658822370340380825e-01
7.650000000000000133e-01,3.141592653589792672e+00,1.084202172485504434e-18,-9.948840454380715181e-01
7.724999999999999645e-01,3.141592653589792672e+00,1.084202172485504434e-18,-1.032039317143663482e+00
7.800000000000000266e-01,3.141592653589792672e+00,1.084202172485504434e-18,-1.094620600372504304e+00
7.874999999999999778e-01,3.141592653589792672e+00,1.084202172485504434e-18,-1.154962794165166118e+00
7.949999999999999289e-01,3.141592653589792672e+00,1.084202172485504434e-18,-1.127634742158869718e+00
8.024999999999999911e-01,3.141592653589792672e+00,1.084202172485504434e-18,-1.138250845268486522e+00
8.099999999999999423e-01,3.141592653589792672e+00,1.084202172485504434e-18,-1.163897232581904362e+00
8.175000000000000044e-01,3.141592653589792672e+00,1.084202172485504434e-18,-1.117686983400085321e+00
8.249999999999999556e-01,3.141592653589792672e+00,1.084202172485504434e-18,-1.106897114911165714e+00
8.325000000000000178e-01,3.141592653589792672e+00,1.084202172485504434e-18,-9.998943768312242852e-01
8.399999999999999689e-01,3.141592653589792672e+00,1.084202172485504434e-18,-1.107484803643835836e+00
8.474999999999999201e-01,3.141592653589792672e+00,1.084202172485504434e-18,-1.113927625882475070e+00
8.549999999999999822e-01,3.141592653589792672e+00,1.084202172485504434e-18,-1.118604613182857088e+00
8.624999999999999334e-01,3.141592653589792672e+00,1.084202172485504434e-18,-9.948980453569319371e-01
8.699999999999999956e-01,3.141592653589792672e+00,1.084202172485504434e-18,-1.109094926482247834e+00
8.774999999999999467e-01,3.141592653589792672e+00,1.084202172485504434e-18,-1.131166427023674759e+00
8.850000000000000089e-01,3.141592653589792672e+00,1.084202172485504434e-18,-9.579646206269936126e-01
8.924999999999999600e-01,3.141592653589792672e+00,1.084202172485504434e-18,-1.146175821138193607e+00
8.999999999999999112e-01,3.141592653589792672e+00,1.084202172485504434e-18,-1.148954732317700733e+00
9.074999999999999734e-01,3.141592653589792672e+00,1.084202172485504434e-18,-1.102423153988693283e+00
9.149999999999999245e-01,3.141592653589792672e+00,1.084202172485504434e-18,-1.100855627482330901e+00
9.224999999999999867e-01,3.141592653589792672e+00,1.084202172485504434e-18,-1.089427054996406685e+00
9.299999999999999378e-01,3.141592653589792672e+00,1.084202172485504434e-18,-1.076715711270413101e+00
9.375000000000000000e-01,3.141592653589792672e+00,1.084202172485504434e-18,-1.079248537001232133e+00
9.449999999999999512e-01,3.141592653589792672e+00,1.084202172485504434e-18,-1.076511348934561907e+00
9.525000000000000133e-01,3.141592653589792672e+00,1.084202172485504434e-18,-1.051894344171609319e+00
9.599999999999999645e-01,3.141592653589792672e+00,1.084202172485504434e-18,-1.033044556321513374e+00
9.674999999999999156e-01,3.141592653589792672e+00,1.084202172485504434e-18,-1.001975892315447147e+00
9.749999999999999778e-01,3.141592653589792672e+00,1.084202172485504434e-18,-1.043451650897711636e+00
9.824999999999999289e-01,3.141592653589792672e+00,1.084202172485504434e-18,-1.024544350474676957e+00
9.899999999999999911e-01,3.141592653589792672e+00,1.084202172485504434e-18,-1.035668141530292630e+00
9.974999999999999423e-01,3.141592653589792672e+00,1.084202172485504434e-18,-1.022197744350819892e+00
1.004999999999999893e+00,3.141592653589792672e+00,1.084202172485504434e-18,-1.029371996024014635e+00
1.012499999999999956e+00,3.141592653589792672e+00,1.084202172485504434e-18,-1.047228767477511591e+00
1.020000000000000018e+00,3.141592653589792672e+00,1.084202172485504434e-18,-1.067188872821255741e+00
1.027499999999999858e+00,3.141592653589792672e+00,1.084202172485504434e-18,-1.065165949893859043e+00
1.034999999999999920e+00,3.141592653589792672e+00,1.084202172485504434e-18,-1.065771093633107958e+00
1.042499999999999982e+00,3.141592653589792672e+00,1.084202172485504434e-18,-1.085757887590069748e+00
1.050000000000000044e+00,3.141592653589792672e+00,1.084202172485504434e-18,-1.095786496768043294e+00
1.057499999999999885e+00,3.141592653589792672e+00,1.084202172485504434e-18,-1.140406719400661517e+00
1.064999999999999947e+00,3.141592653589792672e+00,1.084202172485504434e-18,-1.129230025035788287e+00
1.072500000000000009e+00,3.141592653589792672e+00,1.084202172485504434e-18,-1.184941318587299897e+00
1.080000000000000071e+00,3.141592653589792672e+00,1.084202172485504434e-18,-1.154853599811866083e+00
1.087499999999999911e+00,3.141592653589792672e+00,1.084202172485504434e-18,-1.206049743539321151e+00
1.094999999999999973e+00,3.141592653589792672e+00,1.084202172485504434e-18,-1.225576103745364076e+00
1.102500000000000036e+00,3.141592653589792672e+00,1.084202172485504434e-18,-1.243331686865313035e+00
1.109999999999999876e+00,3.141592653589792672e+00,1.084202172485504434e-18,-1.280685132439563167e+00
1.117499999999999938e+00,3.141592653589792672e+00,1.084202172485504434e-18,-1.265951547863449322e+00
1.125000000000000000e+00,3.141592653589792672e+00,1.084202172485504434e-18,-1.284583445497823551e+00
1.132500000000000062e+00,3.141592653589792672e+00,1.084202172485504434e-18,-1.241818478081452515e+00
1.139999999999999902e+00,3.141592653589792672e+00,1.084202172485504434e-18,-1.300901901305795416e+00
1.147499999999999964e+00,3.141592653589792672e+00,1.084202172485504434e-18,-1.234999752977869569e+00
1.155000000000000027e+00,3.141592653589792672e+00,1.084202172485504434e-18,-1.320093025959741206e+00
1.162499999999999867e+00,3.141592653589792672e+00,1.084202172485504434e-18,-1.314705053858836514e+00
1.169999999999999929e+00,3.141592653589792672e+00,1.084202172485504434e-18,-1.299837393796550167e+00
1.177499999999999991e+00,3.141592653589792672e+00,1.084202172485504434e-18,-1.316722540349962056e+00
1.185000000000000053e+00,3.141592653589792672e+00,1.084202172485504434e-18,-1.308583711495760804e+00
1.192499999999999893e+00,3.141592653589792672e+00,1.084202172485504434e-18,-1.333447188574650388e+00
1.199999999999999956e+00,3.141592653589792672e+00,1.084202172485504434e-18,-1.285618982423315959e+00
1.207500000000000018e+00,3.141592653589792672e+00,1.084202172485504434e-18,-1.331471035613323473e+00
1.214999999999999858e+00,3.141592653589792672e+00,1.084202172485504434e-18,-1.244785055971528109e+00
1.222499999999999920e+00,3.141592653589792672e+00,1.084202172485504434e-18,-1.249473939862605354e+00
1.229999999999999982e+00,3.141592653589792672e+00,1.084202172485504434e-18,-1.186091463881244312e+00
1.237500000000000044e+00,3.141592653589792672e+00,1.084202172485504434e-18,-1.195218474011970011e+00
1.244999999999999885e+00,3.141592653589792672e+00,1.084202172485504434e-18,-1.160586229652379453e+00
1.252499999999999947e+00,3.141592653589792672e+00,1.084202172485504434e-18,-1.112071820413780276e+00
1.260000000000000009e+00,3.141592653589792672e+00,1.084202172485504434e-18,-1.068851324957511562e+00
1.267499999999999849e+00,3.141592653589792672e+00,1.084202172485504434e-18,-1.003885758062628364e+00
1.274999999999999911e+00,3.141592653589792672e+00,1.084202172485504434e-18,-9.811352880908437157e-01
1.282499999999999973e+00,3.141592653589792672e+00,1.084202172485504434e-18,-9.104811743551035619e-01
1.290000000000000036e+00,3.141592653589792672e+00,1.084202172485504434e-18,-9.094020066996387763e-01
1.297499999999999876e+00,3.141592653589792672e+00,1.084202172485504434e-18,-8.624701598123859503e-01
1.304999999999999938e+00,3.141592653589792672e+00,1.084202172485504434e-18,-8.357692306520408954e-01
1.312500000000000000e+00,3.141592653589792672e+00,1.084202172485504434e-18,-7.949896362000494765e-01
1.319999999999999840e+00,3.141592653589792672e+00,1.084202172485504434e-18,-7.759308677416755229e-01
1.327499999999999902e+00,3.141592653589792672e+00,1.084202172485504434e-18,-7.570455363579629005e-01
1.334999999999999964e+00,3.141592653589792672e+00,1.084202172485504434e-18,-7.313341155353795253e-01
1.342500000000000027e+00,3.141592653589792672e+00,1.084202172485504434e-18,-7.012819342291153335e-01
1.349999999999999867e+00,3.141592653589792672e+00,1.084202172485504434e-18,-6.822524043348288103e-01
1.357499999999999929e+00,3.141592653589792672e+00,1.084202172485504434e-18,-6.190535069732747697e-01
1.364999999999999991e+00,3.141592653589792672e+00,1.084202172485504434e-18,-5.727024879443095573e-01
1.372500000000000053e+00,3.141592653589792672e+00,1.084202172485504434e-18,-5.547087472751819348e-01
1.379999999999999893e+00,3.141592653589792672e+00,1.084202172485504434e-18,-5.525854833032797231e-01
1.387499999999999956e+00,3.141592653589792672e+00,1.084202172485504434e-18,-5.213420183505651506e-01
1.395000000000000018e+00,3.141592653589792672e+00,1.084202172485504434e-18,-5.028205501733307159e-01
1.402499999999999858e+00,3.141592653589792672e+00,1.084202172485504434e-18,-4.583535758911236879e-01
1.409999999999999920e+00,3.141592653589792672e+00,1.084202172485504434e-18,-4.064080207982612714e-01
1.417499999999999982e+00,3.141592653589792672e+00,1.084202172485504434e-18,-3.754097590534468676e-01
1.425000000000000044e+00,3.141592653589792672e+00,1.084202172485504434e-18,-3.243119262769002531e-01
1.432499999999999885e+00,3.141592653589792672e+00,1.084202172485504434e-18,-3.130560421405049198e-01
1.439999999999999947e+00,3.141592653589792672e+00,1.084202172485504434e-18,-2.304920867431475839e-01
1.447500000000000009e+00,3.141592653589792672e+00,1.084202172485504434e-18,-1.668605843007784362e-01
1.454999999999999849e+00,3.141592653589792672e+00,1.084202172485504434e-18,-8.635363094630935099e-02
1.462499999999999911e+00,3.141592653589792672e+00,1.084202172485504434e-18,-3.247441935376663147e-02
1.469999999999999973e+00,3.141592653589792672e+00,1.084202172485504434e-18,7.802779976351699454e-02
1.477500000000000036e+00,3.141592653589792672e+00,1.084202172485504434e-18,1.805611196607192770e-01
